"{'distance': [0.067, 0.186, 0.566, 0.713, 0.911], 'solute_3': [6.13, -5.21, 5.03, -7.38, 7.47], 'solute_2': [6.58, -4.84, 7.36, -5.37, 6.32], 'solute_1': [6.64, -3.6, 3.99, -7.83, 6.32]}","{'solute_3i': '96.0 mM', 'solute_1e': '138.0 mM', 'solute_2i': '60.0 uM', 'solute_3e': '34.0 uM', 'solute_1i': '108.0 mM', 'solute_2e': '102.0 uM'}"
voltage,current,solute_3,solute_2,solute_1
-150,-1443.7436526261072,-460144.2668641257,-1569389.1068058677,-3002844580.2012796
-140,-1250.5071707177424,-403012.834722185,-1391080.244093656,-2600909084.3766384
-130,-1058.3970942830024,-339549.5076069836,-1198208.726024392,-2201329156.00513
-120,-870.7609733136426,-269341.4218562038,-992026.5709685845,-1811069453.8171513
-110,-693.1950626786806,-191680.6844054208,-779019.1500835348,-1441770199.1205828
-100,-532.390480731652,-105019.66160146444,-572184.1714989097,-1107345669.524168
-90,-394.1896833563823,-6331.846191288263,-388698.31853446364,-819942010.0985519
-80,-281.794589206325,109396.42887042533,-243131.2842561012,-586213514.8788064
-70,-195.08503733789723,249388.8602282767,-140623.60073731473,-405909141.9717636
-60,-131.21863171695793,423058.7864463647,-76050.66095062389,-273121179.98913455
-50,-85.89999088772527,642202.753772361,-38991.85864705518,-178922968.74192485
-40,-54.58067338873843,922707.5597309407,-19185.08060542594,-113862555.63874605
-30,-33.208637812059635,1289766.2524644814,-9117.437965553489,-69522133.03907675
-20,-18.5204256848754,1786672.7081031231,-4148.87612129685,-39128841.76613453
-10,-8.048124296436892,2478732.0899167946,-1685.9315855933323,-17571113.201751016
0,-0.028782024585568777,3432310.353084749,-336.9530918058473,-1203766.5072391406
10,6.681937458571192,4662790.337132079,670.846031634865,12348613.20743674
20,12.724979183067664,6100227.619215116,1821.1301368387994,24442653.409016978
30,18.437134026290888,7628289.591303921,3466.154493719882,35817668.493267186
40,24.052871470659774,9156639.525820417,5885.953585252489,46991452.266114496
50,29.802141767022274,10651362.20302118,9288.412227772866,58453636.15235227
60,35.92065395652623,12120267.481150031,13777.610379921496,70691994.92234764
70,42.638203320114,13588897.2342937,19332.058025264338,84176171.43526603
80,50.17510187198869,15085593.386395052,25828.5969421033,99355210.83859332
90,58.74740297810063,16635628.425418448,33107.19557486678,116670344.89988849
100,68.5756093746168,18260070.62586306,41037.96095822272,136573444.64765403
"{'distance': [0.067, 0.186, 0.566, 0.713, 0.911], 'solute_3': [6.13, -5.21, 5.03, -7.38, 7.47], 'solute_2': [6.58, -4.84, 7.36, -5.37, 6.32], 'solute_1': [6.64, -3.6, 3.99, -7.83, 6.32]}","{'solute_3i': '96.0 mM', 'solute_1e': '138.0 mM', 'solute_2i': '60.0 uM', 'solute_3e': '34.0 uM', 'solute_1i': '108.0 mM', 'solute_2e': '102.0 uM'}"
voltage,largest element,smallest element,element difference,element ratio difference,condition number,transport error solute_3,transport error solute_2,transport error solute_1,current errors,smallest eigenvalue,second smallest eigenvalue,sum absolute errors,sum squared errors
-150,2881896371655.1797,226419.30505775462,2881896145235.8745,12728138.931969916,1.0648066035132038e+18,5.052424967288971e-08,1.2347009032964706e-06,9.059906005859375e-06,3.865352482534945e-12,7.9729545796034197e-06,-122090648.52388977,1.3276203776944064e-05,3.0307466836632102e-05
-140,2330987609236.7729,243128.13584909699,2330987366108.6372,9587486.043505691,1.5427479478855626e+18,9.655486792325974e-07,1.2088567018508911e-06,2.09808349609375e-05,1.0231815394945443e-11,1.5196895874044441e-05,-124178833.48851798,2.9256286234868746e-05,4.7031025200539034e-05
-130,2004224914199.5903,261070.01090909174,2004224653129.5793,7676963.3831956657,4.5047416291774099e+17,4.423782229423523e-07,5.266629159450531e-07,1.430511474609375e-05,7.048583938740194e-12,-3.3192746556019576e-05,-120807739.11598386,1.6945333772416591e-05,3.1974714243432345e-05
-120,1772078051481.1938,280335.92392768897,1772077771145.27,6321266.3816082701,1.2773902305712343e+18,4.1496241465210915e-07,5.913316272199154e-06,7.3909759521484375e-06,3.296918293926865e-12,-2.0940510033230379e-06,-108595309.9669534,8.1806948228806512e-06,1.8495226584036573e-05
-110,1618453457751.7717,301023.58356186893,1618453156728.1882,5376500.533949472,2.8767107696930473e+18,7.1285758167505264e-06,6.111920811235905e-06,6.198883056640625e-06,2.1600499167107046e-12,-0.00015927847082453702,-95358091.486847281,1.5645323481883017e-05,4.1662170261247411e-05
-100,1531262167210.873,323237.90897310455,1531261843972.9641,4737260.465752746,4.5173498294617542e+17,5.378678906708956e-06,3.209104761481285e-06,1.1682510375976562e-05,5.115907697472721e-12,4.6853078421455622e-05,-82927071.322466567,1.4710729465787259e-05,3.0264507962840526e-05
-90,1501665179597.4814,347091.56193348835,1501664832505.9194,4326423.7575595081,2.6367186074019814e+17,9.523937478661537e-07,1.125270500779152e-06,2.5033950805664062e-06,1.4779288903810084e-12,-7.5255274416345294e-06,-71644826.651145682,4.6072266607631346e-06,1.0582220141941434e-05
-80,1523492582334.1182,372705.51819914364,1523492209628.5999,4087657.7027767189,7.8886730537231245e+17,1.3207318261265755e-06,2.9143993742763996e-06,2.7418136596679688e-06,6.252776074688882e-13,3.285785618360859e-06,-61651071.266308092,4.5099838763989199e-06,1.0875138102051096e-05
-70,1592801854958.7686,400209.68104868772,1592801454749.0874,3979918.3537616506,9.6721366585770291e+17,2.7568312361836433e-06,3.404624294489622e-06,6.616115570068359e-06,1.7337242752546445e-12,-2.7895314224938282e-06,-53017780.362625122,6.6758463694983057e-06,1.8044307140030469e-05
-60,1707548429030.3696,429743.54009835637,1707547999286.8296,3973412.6745443554,1.4972039672958817e+18,8.84645851328969e-06,2.4843320716172457e-06,1.996755599975586e-05,8.895995051716454e-12,1.3692893093910597e-05,-45767373.596524931,1.5363067658180042e-05,3.0240072888432223e-05
-50,1867347656163.3364,461456.87873502565,1867347194706.4578,4046635.2160189403,1.9500728717822902e+19,6.846850737929344e-06,1.3255717931315303e-05,1.6361474990844727e-05,7.105427357601002e-12,8.6822393581060853e-05,-39879073.753515497,1.8704064181658004e-05,4.1450640765106073e-05
-40,2073312189705.187,495510.53375493572,2073311694194.6533,4184193.9746342176,7.6499011740736179e+17,8.141854777932167e-06,1.089811121346429e-05,0.00010272860527038574,5.190514684727532e-11,5.1021434001878467e-05,-35301843.786328755,0.00014041736113257108,0.00024350105741177686
-30,2327952680294.6641,489216.22750499577,2327952191078.4365,4758535.2844226565,2.2029575762346557e+18,2.431171014904976e-05,2.0453935576369986e-05,0.00015422701835632324,7.563727422166266e-11,-2.0852059180292333e-05,-31975250.417616032,0.00020210214712537515,0.00036759064208524705
-20,2635132835216.2319,476279.36092534795,2635132358936.8711,5532746.2229236988,1.976953103757781e+18,5.728565156459808e-06,3.356807883392321e-05,5.766749382019043e-05,1.6612489162071142e-11,3.9156114601165203e-05,-29853777.971712861,7.4054648786373237e-05,0.00013131845049940694
-10,3000072465731.8682,463684.59770918253,3000072002047.2705,6470071.4247435015,1.5591530312898865e+18,1.8680933862924576e-05,2.276182340210653e-05,2.5659799575805664e-05,9.105605158765684e-12,0.00018812228861769884,-28922904.333331637,4.9953610463410637e-05,0.00011249903930377059
0,3429394281032.6123,451422.89125231706,3429393829609.7212,7596855.0720122792,6.9888594574668687e+18,9.039882570505142e-06,6.131897748673509e-06,2.8401613235473633e-05,1.5982881684806216e-11,0.00014619087268160554,-29185127.651284955,3.9593787579054435e-05,0.00010398806020361917
10,3931211991177.9639,439485.43417957419,3931211551692.5298,8945033.6357943248,1.9155973092174828e+18,1.0301358997821808e-05,1.5161087162596232e-05,1.3347715139389038e-05,6.8336447611727635e-12,1.1616416315373346e-05,-30601588.623355746,2.3923138781569774e-05,6.2772539060063082e-05
20,4515258842847.4746,427863.65201859362,4515258414983.8223,10553032.073524337,1.4313724596676086e+18,1.1762604117393494e-05,4.153267582296394e-06,3.270059823989868e-05,1.7813306385505712e-11,-3.3976987505985995e-05,-33027018.847850587,3.8656385353353886e-05,9.3674206297578166e-05
30,5193057103516.2773,416549.19704093476,5193056686967.0801,12466851.791832766,3.5856886952110894e+18,4.6378932893276215e-05,3.3985117624979466e-05,4.8629939556121826e-05,3.0954794283388765e-11,0.00031339429956262383,-36219813.87281099,7.44540985850885e-05,0.00019819963495137927
40,5978130292311.1719,405533.94226604491,5978129886777.2295,14741380.854353501,9.6924258296225408e+17,8.650124073028564e-06,1.2522232282208279e-05,1.8499791622161865e-05,1.1354472917446401e-11,2.9892557827053213e-05,-39937022.584249154,5.1925969398321647e-05,0.00010933509793176199
50,6886261180815.3047,394809.97562378779,6886260786005.3291,17441963.491259865,1.2207996879039124e+18,3.437697887420654e-05,2.0111161575186998e-05,7.302314043045044e-05,3.643307877609914e-11,0.00011863053342871878,-44019250.044347003,6.4367436135336371e-05,0.00014607512159159342
60,7935799799446.6006,384369.59427133808,7935799415077.0059,20646273.580746558,1.9142283661586985e+18,1.4934688806533813e-05,3.801859566010535e-05,7.946789264678955e-05,2.361844053666573e-11,-6.5895413225189206e-05,-48402913.870453939,5.2261076755593255e-05,0.00013476655817612482
70,9148026925238.6016,374205.29906036024,9148026551033.3027,24446545.648096241,1.0340899850894574e+19,3.1031668186187744e-05,2.5509543775115162e-05,6.248056888580322e-05,2.3241852886712877e-11,0.00010547856851849004,-53086578.941872433,0.0001116026237305326,0.00022386596515389101
80,10547579832643.264,364309.78915049805,10547579468333.475,28952227.326194659,2.0347595229313933e+19,3.914162516593933e-05,1.988028088817373e-05,9.635090827941895e-05,4.6206594106479315e-11,8.8493513229058069e-05,-58093923.609393574,0.00011236592413779134,0.00025417405311145558
90,12162948496810.576,354675.95676530496,12162948142134.619,34293129.44620885,1.3013685622662277e+18,3.463961184024811e-05,2.146884799003601e-05,8.729100227355957e-05,5.012168458051747e-11,-4.226416310390997e-05,-63446241.381854154,0.0001674874754247498,0.00030426330238242372
100,14027051985151.729,345296.88208684931,14027051639854.846,40623164.334347032,1.2442282979798979e+18,3.411248326301575e-05,7.93854269431904e-06,1.531839370727539e-05,5.172751116333529e-12,9.2124972295989897e-05,-69138292.633949116,5.5106986543275021e-05,0.00012236589270742115
"{'distance': [0.067, 0.186, 0.566, 0.713, 0.911], 'solute_3': [6.13, -5.21, 5.03, -7.38, 7.47], 'solute_2': [6.58, -4.84, 7.36, -5.37, 6.32], 'solute_1': [6.64, -3.6, 3.99, -7.83, 6.32]}","{'solute_3i': '96.0 mM', 'solute_1e': '138.0 mM', 'solute_2i': '60.0 uM', 'solute_3e': '34.0 uM', 'solute_1i': '108.0 mM', 'solute_2e': '102.0 uM'}"
voltage,"current, barrier 0","current, barrier 1","current, barrier 2",solute_3 transport over barrier 0,solute_3 transport over barrier 1,solute_3 transport over barrier 2,solute_2 transport over barrier 0,solute_2 transport over barrier 1,solute_2 transport over barrier 2,solute_1 transport over barrier 0,solute_1 transport over barrier 1,solute_1 transport over barrier 2
-150,-1443.7436526261088,-1443.7436526261072,-1443.743652626111,-460144.26686416403,-460144.2668641257,-460144.2668641135,-1569389.1068051017,-1569389.1068058677,-1569389.106804633,-3002844580.2012835,-3002844580.2012796,-3002844580.2012887
-140,-1250.5071707177412,-1250.5071707177424,-1250.5071707177515,-403012.83472121943,-403012.834722185,-403012.83472211007,-1391080.2440937757,-1391080.244093656,-1391080.244092567,-2600909084.3766365,-2600909084.3766384,-2600909084.3766575
-130,-1058.397094283005,-1058.3970942830024,-1058.3970942830094,-339549.5076065412,-339549.5076069836,-339549.50760672987,-1198208.7260246486,-1198208.726024392,-1198208.7260249187,-2201329156.005135,-2201329156.00513,-2201329156.005144
-120,-870.7609733136451,-870.7609733136426,-870.7609733136459,-269341.4218566188,-269341.4218562038,-269341.4218564257,-992026.5709731784,-992026.5709685845,-992026.570967265,-1811069453.8171532,-1811069453.8171513,-1811069453.8171587
-110,-693.1950626786828,-693.1950626786806,-693.1950626786825,-191680.68441254937,-191680.6844054208,-191680.68440764397,-779019.1500774228,-779019.1500835348,-779019.1500815544,-1441770199.120589,-1441770199.1205828,-1441770199.120587
-100,-532.3904807316472,-532.390480731652,-532.3904807316469,-105019.66159608576,-105019.66160146444,-105019.66160110105,-572184.1714979818,-572184.1714989097,-572184.1715011909,-1107345669.5241606,-1107345669.524168,-1107345669.5241563
-90,-394.18968335638124,-394.1896833563823,-394.18968335638084,-6331.846192090423,-6331.846191288263,-6331.846191138029,-388698.3185333384,-388698.31853446364,-388698.31853377854,-819942010.0985501,-819942010.0985519,-819942010.0985494
-80,-281.7945892063246,-281.794589206325,-281.7945892063252,109396.4288717081,109396.42887042533,109396.42887038738,-243131.28425881942,-243131.2842561012,-243131.28425590502,-586213514.8788042,-586213514.8788064,-586213514.878807
-70,-195.0850373378985,-195.08503733789723,-195.08503733789678,249388.86023103353,249388.8602282767,249388.86022862094,-140623.60073504457,-140623.60073731473,-140623.6007384492,-405909141.9717686,-405909141.9717636,-405909141.971762
-60,-131.21863171696282,-131.21863171695793,-131.21863171695392,423058.7864552112,423058.7864463647,423058.78644641023,-76050.66095310822,-76050.66095062389,-76050.66095088697,-273121179.989146,-273121179.98913455,-273121179.989126
-50,-85.89999088772163,-85.89999088772527,-85.89999088771816,642202.7537792078,642202.753772361,642202.7537782113,-38991.85863420961,-38991.85864705518,-38991.85864746533,-178922968.7419281,-178922968.74192485,-178922968.74191174
-40,-54.58067338879034,-54.58067338873843,-54.58067338877968,922707.5597353822,922707.5597309407,922707.5597390826,-19185.080615549465,-19185.08060542594,-19185.080604651353,-113862555.63884878,-113862555.63874605,-113862555.6388351
-30,-33.20863781200428,-33.208637812059635,-33.208637811984,1289766.2524498147,1289766.2524644814,1289766.2524741264,-9117.437945181853,-9117.437965553489,-9117.437965635789,-69522133.03897023,-69522133.03907675,-69522133.03892252
-20,-18.52042568489201,-18.5204256848754,-18.520425684887947,1786672.7081052875,1786672.7081031231,1786672.708099559,-4148.876087728771,-4148.87612129685,-4148.87612106657,-39128841.7661922,-39128841.76613453,-39128841.7661596
-10,-8.048124296439564,-8.048124296436892,-8.048124296445998,2478732.089921761,2478732.0899167946,2478732.0899354755,-1685.931562831509,-1685.9315855933323,-1685.931584866401,-17571113.201773405,-17571113.201751016,-17571113.201776676
0,-0.028782024599146583,-0.028782024585568777,-0.0287820245831637,3432310.353089751,3432310.353084749,3432310.353093789,-336.95309793774504,-336.9530918058473,-336.95309267485754,-1203766.5072649717,-1203766.5072391406,-1203766.5072365701
10,6.681937458577299,6.681937458571192,6.681937458578026,4662790.337132906,4662790.337132079,4662790.337122604,670.8460467959521,670.846031634865,670.8460376802686,12348613.207439065,12348613.20743674,12348613.207450088
20,12.724979183054218,12.724979183067664,12.724979183072032,6100227.619203894,6100227.619215116,6100227.619215657,1821.1301326855319,1821.1301368387994,1821.130133351815,24442653.40899551,24442653.409016978,24442653.40902821
30,18.437134026321843,18.437134026290888,18.437134026301344,7628289.59131258,7628289.591303921,7628289.5913503,3466.1545130630257,3466.154493719882,3466.154479077908,35817668.493315816,35817668.493267186,35817668.49328325
40,24.052871470650587,24.052871470659774,24.05287147066194,9156639.525818674,9156639.525820417,9156639.525827324,5885.953585206182,5885.953585252489,5885.953597728414,46991452.266095996,46991452.266114496,46991452.266108386
50,29.802141767041764,29.802141767022274,29.80214176700533,10651362.203023687,10651362.20302118,10651362.203055557,9288.41223791556,9288.412227772866,9288.412217804398,58453636.152385235,58453636.15235227,58453636.15231221
60,35.920653956508616,35.92065395652623,35.920653956532234,12120267.481154663,12120267.481150031,12120267.481139729,13777.610399113968,13777.610379921496,13777.610361095372,70691994.92229664,70691994.92234764,70691994.92237611
70,42.63820332009076,42.638203320114,42.63820332009383,13588897.234293949,13588897.2342937,13588897.234324731,19332.058015010087,19332.058025264338,19332.05804051963,84176171.43522441,84176171.43526603,84176171.43520355
80,50.17510187195991,50.17510187198869,50.17510187200612,15085593.386389162,15085593.386395052,15085593.386428304,25828.596957998234,25828.5969421033,25828.596938117953,99355210.83852482,99355210.83859332,99355210.83862117
90,58.74740297815075,58.74740297810063,58.74740297811383,16635628.42542652,16635628.425418448,16635628.42539188,33107.19559633563,33107.19557486678,33107.19557697396,116670344.89997578,116670344.89988849,116670344.89992341
100,68.57560937461163,68.5756093746168,68.57560937461417,18260070.62586146,18260070.62586306,18260070.62589557,41037.96096463752,41037.96095822272,41037.960956698975,136573444.6476395,136573444.64765403,136573444.6476387
"{'distance': [0.067, 0.186, 0.566, 0.713, 0.911], 'solute_3': [6.13, -5.21, 5.03, -7.38, 7.47], 'solute_2': [6.58, -4.84, 7.36, -5.37, 6.32], 'solute_1': [6.64, -3.6, 3.99, -7.83, 6.32]}","{'solute_3i': '96.0 mM', 'solute_1e': '138.0 mM', 'solute_2i': '60.0 uM', 'solute_3e': '34.0 uM', 'solute_1i': '108.0 mM', 'solute_2e': '102.0 uM'}"
voltage,current,solute_3,solute_2,solute_1
-150,-1443.743652626014,-460144.26686773216,-1569389.1068045036,-3002844580.201085
-140,-1250.5071707177824,-403012.8347192911,-1391080.2441060713,-2600909084.376714
-130,-1058.3970942828953,-339549.50761201093,-1198208.7260184186,-2201329156.0049095
-120,-870.760973313645,-269341.4218559745,-992026.5709756764,-1811069453.8171515
-110,-693.1950626786288,-191680.684412257,-779019.1500812338,-1441770199.1204743
-100,-532.3904807317001,-105019.66159718717,-572184.1715034982,-1107345669.5242665
-90,-394.1896833564151,-6331.846191509452,-388698.3185354301,-819942010.0986193
-80,-281.79458920632675,109396.42887026374,-243131.28425824232,-586213514.8788086
-70,-195.08503733790184,249388.86023021786,-140623.6007369211,-405909141.97177404
-60,-131.21863171696648,423058.7864490461,-76050.66095065352,-273121179.98915315
-50,-85.89999088772787,642202.7537748301,-38991.858645430104,-178922968.74193215
-40,-54.58067338875898,922707.5597361897,-19185.08060633122,-113862555.63878995
-30,-33.208637811982044,1289766.2524632572,-9117.437964243796,-69522133.03891575
-20,-18.520425684907245,1786672.7080983878,-4148.876119807748,-39128841.766200215
-10,-8.048124296445929,2478732.089923733,-1685.931584975382,-17571113.201772545
0,-0.028782024586247235,3432310.3530890485,-336.95309194916024,-1203766.5072418898
10,6.681937458571783,4662790.337126475,670.8460325130019,12348613.207439251
20,12.724979183067331,6100227.619217545,1821.1301367118983,24442653.409015562
30,18.43713402627341,7628289.591331696,3466.1544911539117,35817668.49322327
40,24.052871470660012,9156639.525819544,5885.953587195735,46991452.26611399
50,29.80214176699693,10651362.20304336,9288.412222810412,58453636.152295455
60,35.920653956553096,12120267.481142161,13777.610370072434,70691994.92241271
70,42.63820332006078,13588897.234314619,19332.058034636102,84176171.43514207
80,50.17510187195767,15085593.386412384,25828.59693958144,99355210.8385247
90,58.7474029781619,16635628.42539684,33107.19557028566,116670344.90002622
100,68.57560937454674,18260070.62588412,41037.960966062485,136573444.647496
"{'distance': [0.067, 0.186, 0.566, 0.713, 0.911], 'solute_3': [6.13, -5.21, 5.03, -7.38, 7.47], 'solute_2': [6.58, -4.84, 7.36, -5.37, 6.32], 'solute_1': [6.64, -3.6, 3.99, -7.83, 6.32]}","{'solute_3i': '96.0 mM', 'solute_1e': '138.0 mM', 'solute_2i': '60.0 uM', 'solute_3e': '34.0 uM', 'solute_1i': '108.0 mM', 'solute_2e': '102.0 uM'}"
