"{'distance': [0.366, 0.628, 0.878, 0.91, 0.911], 'solute_1': [6.16, -6.31, 1.29, -4.08, 14.27]}","{'solute_1i': '104.0 uM', 'solute_1e': '73.0 mM'}"
voltage,current,solute_1
-150,-0.10872664687039020519111266785879474441655119709655882173648621669241599909159122,-678693.17646935212662967674862836850031382069614759082629943625617863496334163932
-140,-0.10803006754463998847238426322349931968322533299211968087787723936560337402632514,-674344.99091535576736667430909307579955743626802487118947254055932654150887756005
-130,-0.10708701196967174371541596545124869663045838139638018333948197728921557733048281,-668458.25199545411440394269230325639446324257666695139726838419940678481695239477
-120,-0.10580830117503753206833374858317619768133332771898390509286383846896783280777882,-660476.28698525304254559511364306111246757475516230121686701534594871103268228374
-110,-0.1040778624287430001738678915656487803049700329822198521816517943198574326753512,-649674.54699589891032386660355780254036019734054680976204415845475639861688367448
-100,-0.10174994780141540338455124617231941902740132293699562990687839846810309807274386,-635143.24470296759380097228647499213806005721998346207400473715836353742035548582
-90,-0.098651285138274403307624934743717013555806975550631033621108408852874548552145873,-615800.78113779281082013363684247438750232810540348789563648644100354942263535257
-80,-0.094593013209921430955423944283116921315095101583102780266159082756488201349795327,-590468.24725294279485694419376833157090921220408990303281675926808196194441175232
-70,-0.089398272916915944178449764823048481754329170767028416590104893682039847395482776,-558041.6536636451229498756580000681597339339011535267725560834548851379091712872
-60,-0.082949280728086847530603047875892077700214371274318550606197400919540565637291573,-517785.77233512391836951455863801831893628156319266765745921143859430822892741152
-50,-0.075249464647981306933057376578881501316067013584608378067487236730175734404792985,-469722.00154794825677969879745695793139441084456761201034214768946786633299598656
-40,-0.066481225319467039063038349607116984359409115020818051927212002126780390843135704,-414988.92209405145082989146817046386064425324303930156231241117616662582572307393
-30,-0.057025933781391020244104996621098008673071815986540304537208385929147785184011305,-355967.12722466306570631747827573409978293308751999472777370963013481751601588748
-20,-0.04741673370064338042030116997020162023967642521143150490196888186257038496243851,-295984.60487292998012925476392549213421401939709951986989318374636294400508852823
-10,-0.038226874939004089789023459853748216346896027138940407187403364003592540302142265,-238619.69375158609064282442141521187356046063704595497814986272043854663285770136
0,-0.029938639222019048305889381365198622724254198360627651022366342677618502903635438,-186882.89152321504256532647892293896944513461143574746868063733031303263198316484
10,-0.022852410803359975068377836247718702015848701719097561180656362045825524436211424,-142649.25595106102511436450762879759561924182348390247003366882951530541546861667
20,-0.01706722085678699502729811911270433788587177430290606326646127581784379209527944,-106536.95915597375711524596299829376994477014774607292709900258223245310765859726
30,-0.012520833341580319418069233568846075816049440226132612759094674754383535661134218,-78157.511495507615798143390142667128481783510933364793633726480103109227441569982
40,-0.0090545828900216616664868720082713410261802238136212304457673503949623032484328578,-56520.492447076542597369311538619736997810440664910761269947326086621166579499644
50,-0.0064728221777953169073586389208997301439206646960468419858595334121738554756368526,-40404.6328201954883551193477018403011601740524747550076030954420235520956622143
60,-0.0045833044692954167356464556717920669900302438878893668847551942459570423152676684,-28609.890569884001044214462636054075930463198696822099922437939018209163344689492
70,-0.0032181731252862174010100099208704933707331592507162446096209098184049043384302602,-20088.471443734192032796613508617752856061133318388629045625121050758284265356745
80,-0.0022410504652498788127771153618275981821989658402062983627079528035660157806322233,-13989.079058988008277391331289442692713172893388939753872960759628705865906933147
90,-0.0015462222024163124952276056154974623575910923147476497764759822541712159140257433,-9651.8239851205528924625014236498691992812493886597714904911999865403218792617826
100,-0.0010543037199830123557164233503182632481409395131503247048466614122777274553958643,-6581.1717851623745880157722978439393756590914881847254200843303434545510252425408
"{'distance': [0.366, 0.628, 0.878, 0.91, 0.911], 'solute_1': [6.16, -6.31, 1.29, -4.08, 14.27]}","{'solute_1i': '104.0 uM', 'solute_1e': '73.0 mM'}"
voltage,largest element,smallest element,element difference,element ratio difference,condition number,transport error solute_1,current errors,smallest eigenvalue,second smallest eigenvalue,sum absolute errors,sum squared errors
-150,31885611133.554389597315842689200410953726194826564704509894614701307910926147249,236.0846030501402425933817839965817606348379638781218356117062162244160094213792,31885610897.46978654717560009581862695714443419172674063177277908960169470173124,135060104.39309522950278370784453859267557517949512901768311264541899146567314107,63771222267.108779194631685378400821907452389653129409019789229402615821852294499,2.8298997121333476148465997784024349314632909994184806842445671531048441620602641e-73,4.5331451155891249864698868420461081733152833944184582465334381007965020451169966e-80,4263661176.5847317782588933798746325028985670266212982987851876662873740143001412,1.1306621844978699929527293740070950607591095171048732577263408267521655388091674e-73,2.7968228166234289230934573718454455831986190500677811583964361753478754227446587e-73,4.7793512996096841760513099468924655585708096113799184243478527232063403072440545e-73
-140,31035993430.282430178166728452668418572992328800053942934124417972556683342696515,244.6406082012779103151708218069948625668585820061839972560042818589649929051879,31035993185.641821976888818137497596765997466233195360927940420716552401483731522,126863621.12355274077557258722831509199818340800227176535845313296710204106163513,62071986860.56486035633345690533683714598465760010788586824883594511336668539303,2.2108591501041778240989060768769022902056960932956880345660680883631595016095813e-74,3.5579918058403015882176437423036314151021119665493712981512450209739986982022939e-81,3378248186.0028660034947754026407182273567961740861120019953073746680906966982017,-9.9593279067917921674413775718969546154913850950233508034733495827337358182764898e-75,4.5553585774792541984225784960534284111792155405059342137285529500705505653732373e-74,7.2892517692290919577326022535604650187599861840725369255206033277281817526545686e-74
-130,30347078657.677888577464493221314445090262936701139629376235880505342448746996654,253.50669382018224045838526736750857763977013586298736412673637918412639409840595,30347078404.17119475728225276292917772275435906136949351324851637860606956287026,119709180.85186233888880404064412484631967771779152022172417228765232384336497323,60694157315.355777154928986442628890180525873402279258752471761010684897493993309,2.1003161925989689328939607730330571756954112886309036328377646839450015265291023e-73,3.3603255944047292777611079788423185587075501906299617815872869642532209927466109e-80,2665462733.4106498512245774568977309777124135384224521247533763535039864052503515,1.3007252703289740499984156622452924682897468655828363502319005721580073479449275e-73,3.2166065158433106138653771520002629947536591683984858205640702901001709657475599e-73,5.5283317711880674657389808286044858467345418337651986821926275411985502971099751e-73
-120,29797560664.093508785228488165033649102052863352177495013608457177359277952497431,262.69409761589992897570403178159235613011998350806438371784603276599228006741934,29797560401.399411169328559189329617320460507222057511505544073459513245186505151,113430643.98676451115729431912142400674298422283940145676821303393891025312352288,59595121328.187017570456976330067298204105726704354990027216914354718555904994863,2.962551261139598284292534143015049068875632765016221966318531238406633732156839e-73,4.7439890744537354509568583230715085534694826220658283975349933612986649309363918e-80,2095532074.8170229851897114383133146389368581434653300554855295565281205059070243,-2.2528567304877936673689907131628703677373709902199909760219724502033575736195291e-73,3.1117712293768879422131323934836019264412413557475794161672842636141477897175922e-73,5.3275166630374635748533310497023701032113509448752423977112969271523880252443531e-73
-110,29369042404.834310068176996282668356746418039322624626856019323639087913465399416,272.21446456629248634757198352176508942774119035114344306694330215918134958220986,29369042132.619845501884509935096373224652949894883436504875880572144611306218066,107889352.79992094843527265853232533872806286213949504346493499981344787552536245,58738084809.668620136353992565336713492836078645249253712038647278175826930798832,1.2590842859843292708243270107813958542721439251318943356853757763228193361666566e-72,2.0175131313857413820597083590617998876004938595507731323961318989300711136843377e-79,1642660174.1305351932592958356497758797170005980428025746728086094083773969622755,1.1717039834369841489314057465297025136213270741394857274647640200469774091229367e-72,1.1041068260706890764150322813161987629315730697403566817375778862701984083218676e-72,1.2376756641271598672841203024493756348531029758670535017067859163254879428450118e-72
-100,29045639853.210909727118511639439459151511568843313252005474286431334750236716597,282.07986167797422923372985540589426501817344149835746289342451513620387704468799,29045639571.13104804914428240570960374561730382513981050711682353791023510051272,102969562.16736153376850588401946768605361277992753858019029805377927222436468949,58091279706.421819454237023278878918303023137686626504010948572862669500473433195,2.3214021076093867153038513807207474047159808979604724362943714927813174766900604e-73,3.7161247749887594365828723530726817002177613872848989114024114663506208625668403e-80,1284909054.5974293079590567669930035411945287850619593911905742046495439327263394,2.721991044815457666989147084558147603590944404745307656165654746560176864431229e-73,3.3689152348056242897677108515087276981368501275627503576400666479342593555905129e-73,5.8020334165180880091123512782054007648285641334253201006863031599647829812965566e-73
-90,28813639855.350242863523350326742453727695006457058327652773497197312351302333541,292.30279328116890275459936655493177660202877893288484427544000601457923898610553,28813639563.047449582354447572143087172763229855029548719888652921872345287754302,98574630.546325714217082199954606145306471255499210127205079467359172002768948276,57627279710.700485727046700653484907455390012914116655305546994394624702604667082,5.3502791432521103343193527060421035422977845457755650436498847738388459938951868e-73,8.5787135763038382738136521342209779675239810749023730188757796616817524167766419e-80,1003966300.0603387722908357959597546804442464475167270553494183688978217711779976,7.1676155860234265763180179788514243971551085160522406593690974369324621545403377e-73,6.4230826152495191886318466477690958321477726313165514094532695219257977110254062e-73,8.5015460027545094061665856322792608607535684470901392233891226610600690102197382e-73
-80,28661204582.293093181903333549754602391552170993586504502491026571968082165088084,302.89621687887151597334322761212810969352799833364101593845892658745861635552151,28661204279.396876303031817576411374779424061300058506168850010633509155577629467,94623844.687220824688081900038204578023105396340471331098068022988504757577026078,57322409164.586186363806667099509204783104341987173009004982053143936164330176168,8.7992194174146277399136461859700711150186704513168383775729509916853748164061337e-73,1.4100189749070824812566217793573650422812073348917878848229008046082142989172053e-79,784841547.31753118179995778516623081440771771478901506096807520699124564577154729,-1.0838626036965133538892520146734804972951199863757586250087675923882383123995825e-72,1.0054975792981841702541019288027224268402991387114402784221528359754215032268882e-72,1.219908198893803163686101811144904507997635101859408547806651144382178728003279e-72
-70,28578116233.408412917579751821967364980321836425119514089314999661072297749491524,313.87355957040373060778597147512529065827596918507031475515766877738337122886488,28578115919.534853347176021214181393505196545766843544904244684905914628972108153,91049772.629854695528908663580158502770880135194767576380300995322897364199632646,57156232466.816825835159503643934729960643672850239028178629999322144595498983048,8.5118077279010846227807883959760738172919299591883989330793621401981640811968881e-73,1.3625790841625451267470531961266499567465125086711296008475508709952276496078414e-79,615537613.71337076764346074538775642172047102088288757278487339024353713986565622,-7.3218892502177549369916768240653529203986345865962235630275066459444878136421114e-73,9.1271204060278343606237859962935767660345572129625224523080122505047484120033665e-73,1.4981721859735988304821984818479765515914537631680182619656549024612201290422298e-72
-60,28555556509.398855418774452220369398489836392848851429451079242103774974862901584,325.24873507017970708792237519759166238987309480643784688741565831280707176822226,28555556184.150120348594745132447023292244730458978334644641395216359316550094512,87796057.079937155941374988488545494726581726553654612947910506930098992838660282,57111113018.797710837548904440738796979672785697702858902158484207549949725803168,9.0866311069281708570465039759640684127454109434452778220665398431725855516153793e-73,1.456141090908716020363146790831671375439938415939650105354491017843062430190198e-79,486727168.03522169909778219154599714190675636968415287917421450902104922767913813,2.1779637304391294441089397618200217534647016842856981048482014641931075532200766e-73,5.4554955566575865624417580373373282772589739415475826255941754649315596509308724e-73,8.3702998889703964554852847754527747359749449813655374720182355766644411747873801e-73
-50,28585916119.716833316020887547760488326729414312999322138577711753082959101765107,337.03616134325371169936676850008490065277338827069113350379244430790229714891317,28585915782.68067197276717584839371982664451366022593386788657824929051479386281,84815575.888913510625442965568421904665175054626134525100298293242348089588035704,57171832239.433666632041775095520976653458828625998644277155423506165918203530214,1.1319598848533390459386399113609739725853163997673922736978268612419376648241056e-72,1.8132580462356499945879547368184432693261133577673832986133752403186008180467986e-79,391424745.79354872489474632903749838387088527002508632514225870360225425439153916,-2.9986045970221505818292387003312198875658569279356411154705633088406820615052775e-73,1.820148216790523817166089521294263459566222390560150027682095808964549880410122e-72,2.7782191572763208135500400742671324681763568433676503029433261876592646323933887e-72
-40,28662630234.084878554895063274131603460694693701515258625153482858949980794606762,349.25077888000218381558671324966456747406734782141047791774472780308818195345555,28662629884.83409967489287945854489021103012622744791080374300494120525299151858,82068908.553337738891439691299346697249344650513889355440365539089771757920489813,57325260468.169757109790126548263206921389387403030517250306965717899961589213523,3.8894539598207748370460005157456903540443708521304391748103552844528883532066559e-72,6.2304389844492392255900072643005812335565871769797879620959579478389132759631279e-79,324562853.36499658656155622153045762620699705441008279307338350702408307907715379,-5.0257540153505177018324193894420413457583485454355500910225352017533430572965766e-72,3.712348144086584534887919259845128950419665046399490510399921566952127362002288e-72,5.5423965955082545708888490184588869542665623672718153981621888158472796163352715e-72
-30,28780036344.864480118756616435974075029311035089738411746907912730994905907588926,361.90806963310354207289073727130137753518259454637869794243817060507538224183738,28780035982.956410485653074363083337758009657554555817200529214788556735302513544,79523057.814215660773535859832491213628656692891639919592994808939731132001750712,57560072689.728960237513232871948150058622070179476823493815825461989811815177853,1.9809297984933433303926198448817044520243036995929364789711970071733909134421849e-72,3.1738604682838393982304425753104800975086802486793188042952865307466206906000832e-79,282304870.42790036317894725546540790088272680333624334285158319626654695155848561,2.879201296821960211981542890360821962998111196620822238387158191582417205382379e-72,1.9494310337682561372283156173029856707251379579304515396258394388017977846096344e-72,2.4681710191255625585713396845822436362992399062831125928806442662211838656695648e-72
-20,28933251488.204452467666806564088158306152061697461229413075144153527138565458447,375.02407664081799730576990411123281505917251314989536640255720039754745991905656,28933251113.180375826848809258318254194919246638288716263179777750969938167910987,77150383.90965890403075852985950973629628740067393120641244397166863388578929715,57866502976.408904935333613128176316612304123394922458826150288307054277130916895,3.2062984824385838893994385379907275463708107593020715721294402451486720672092953e-72,5.1360270604676205333623209206031123853186968109726572720535101737948740467568298e-79,261088786.4371804554190187309688640360672125941178784894186182548459315789538386,-4.9242518303569217853929954727979044094114980516071402896157578493714457175084458e-72,3.6969274858881236515336601242128910129625409602075681186870326798647267509635163e-72,5.7687235957678027549354908361247149399824626552194395679279401652361477189025425e-72
-10,29118066187.554944780480652701492574295527336452549764532826409179150744133924484,388.61542436144006322945140121149554788393931920878170547285964836098574497236627,29118065798.939520419040589472041173084031788568610445324044703706291095772938739,74927716.097220748337211653877894505786912245283373670509829136968019932203423405,58236132375.109889560961305402985148591054672905099529065652818358301488267848967,3.1128896833466823763312597562426784246096200993603287526690238684153285782662905e-72,4.9864596271480374851168755262507189906468117338603040711867819108761522496286963e-79,256942436.0239375448999766806274035204438000493625874387230061413193302127918891,1.8398877660973447264953487151745010028987879981016215392229273005068936794155007e-72,5.1982809845292674731373764938110656737424265767901537471669082648835212090420614e-72,8.4140190335548557435641660606775827657952355210554408027899937387346237923758353e-72
0,29330852842.181067472696988447116452008229915097491617671933337871869442636643732,402.69933974469724062218964000427881617731530972445302907840020214709857316719165,29330852439.481727727999747824926812003951098920176307947480308793469240489545159,72835611.950037465133449119187542303505609626217202101212194729892761545722282398,58661705684.362134945393976894232904016459830194983235343866675743738885273287464,1.414949856066673807423299889201217465731645499709240342122283576552422081030132e-72,2.2665725577945624932349434210230540866576416972092291232667190503982510225584983e-79,265717346.8951407410090393239788646624476581980305690383305731277992520931578405,3.3945006212791935356337148877845946333739730718839673493658520436702741969380256e-73,6.9315835996180886117378118357322014999984034797213492932938151730459449856111931e-73,1.186272789764322060146316539855929423973562570128792792354640917955486131437511e-72
