"{'distance': [0.352, 0.732, 0.846], 'solute_4': [17.24, -1.78, 11.06], 'solute_3': [10.78, -9.69, 15.77], 'solute_2': [10.14, -8.9, 8.52], 'solute_1': [17.69, -4.86, 18.74]}","{'solute_4i': '203.0 M', 'solute_3i': '462.0 M', 'solute_1e': '42.0 uM', 'solute_2i': '223.0 M', 'solute_3e': '356.0 mM', 'solute_1i': '399.0 M', 'solute_2e': '190.0 M', 'solute_4e': '65.0 uM'}"
voltage,current,solute_4,solute_3,solute_2,solute_1
-150,-0.02906824289906453,-0.003376856344289081,46.919149389735296,-181497.05384959074,0.4388441000559049
-140,-0.027545029439950956,-0.0021428398596299303,64.10461643307897,-172006.2110116634,0.6057079511693746
-130,-0.02576425727759193,-0.0008586026357306764,81.60843217629127,-160908.00391872157,0.8220474222969036
-120,-0.023765797707313983,0.0009368528685627098,99.19634864025757,-148451.09208944364,1.0957560001758004
-110,-0.021600303193508592,0.004182899146599084,116.5908663018636,-134951.38984671177,1.4331638685956225
-100,-0.01932472860542998,0.010878632162530266,133.48919498875824,-120764.12753604761,1.8378810051509786
-90,-0.016997368564415857,0.025319095784652745,149.5880586579392,-106252.90112273097,2.3097383970562912
-80,-0.014672966229044763,0.05670425848938976,164.61219253512925,-91759.17589201534,2.84409204330389
-70,-0.012398450348921248,0.12460790218483453,178.34213787090982,-77575.72041438591,3.4317379442257527
-60,-0.01020976426080808,0.27038231960341363,190.63682067184158,-63926.869977222465,4.059582575077485
-50,-0.008130059456910808,0.580862029490163,201.44752708417974,-50957.33696600268,4.712040652696235
-40,-0.006169275962139789,1.2375536838289918,210.8218828755869,-38729.74495486164,5.372944394060421
-30,-0.004324888387045028,2.618722507170787,218.89861120510005,-27229.58880442058,6.027614676313137
-20,-0.00258342052425381,5.511559181401026,225.89550328032863,-16375.315396533842,6.66471474919822
-10,-0.0009222459247416411,11.554169851773622,232.09381412906276,-6030.874890466745,7.2775883701189805
0,0.0006888294594130486,24.15881378807535,237.82219701170587,3981.645782620006,7.864938636076305
10,0.0022867365265398423,50.44432019263331,243.44259308922884,13871.054040824441,8.430870800831407
20,0.003915753187152976,105.2800083332495,249.33956325623612,23868.739753086353,8.984448626304404
30,0.005630696919455087,219.70489037866355,255.91370026738434,34223.35350028088,9.538973853121599
40,0.007504833483538593,458.1977451801795,263.57921304345325,45198.367311637034,10.111198197159842
50,0.009646376885039618,952.9455894111816,272.76571006493924,57072.26417399105,10.720645086364954
60,0.012229460814028342,1967.3446929180755,283.92483400514135,70141.35860010161,11.389191435796231
70,0.015544267835132259,3998.2109611436863,297.54381268329917,84726.06822440602,12.141066572389017
80,0.020055937664903364,7894.4305298055915,314.1691217680393,101182.65486026413,13.003435438475872
90,0.026419157451703517,14881.027699523984,334.43960633244035,119922.06183004772,14.00754809106681
100,0.03535504619397471,26295.97753613517,359.1130891600816,141430.93678922352,15.189760244063297
"{'distance': [0.352, 0.732, 0.846], 'solute_4': [17.24, -1.78, 11.06], 'solute_3': [10.78, -9.69, 15.77], 'solute_2': [10.14, -8.9, 8.52], 'solute_1': [17.69, -4.86, 18.74]}","{'solute_4i': '203.0 M', 'solute_3i': '462.0 M', 'solute_1e': '42.0 uM', 'solute_2i': '223.0 M', 'solute_3e': '356.0 mM', 'solute_1i': '399.0 M', 'solute_2e': '190.0 M', 'solute_4e': '65.0 uM'}"
voltage,largest element,smallest element,element difference,element ratio difference,condition number,transport error solute_4,transport error solute_3,transport error solute_2,transport error solute_1,current errors,smallest eigenvalue,second smallest eigenvalue,sum absolute errors,sum squared errors
-150,487508379959.93817,781.2429524777051,487508379178.69519,624016355.49326837,8.7764549637117145e+21,3.535134338039647e-11,3.8306353644657065e-09,4.045432433485985e-09,6.55414611472338e-11,4.163336342344337e-17,-1.3505768947652541e-08,-782.48640814048736,5.5743539423471842e-09,8.1463449319585379e-09
-140,444905061527.86517,767.37851764893298,444905060760.48663,579772630.18900955,6.5076142412884292e+22,9.647423485081852e-12,3.3146250189020066e-09,3.754394128918648e-09,3.692579575442778e-10,1.734723475976807e-17,1.3112185115460306e-08,-769.68270804685039,5.0231111058920906e-09,7.5612005545622196e-09
-130,409315165330.914,757.57293575880976,409315164573.34106,540298030.73803127,4.943436443571217e+21,3.0792779242248824e-11,9.602274531061994e-10,9.604264050722122e-10,1.0379286319306402e-10,2.7755575615628914e-17,4.2973624658770859e-09,-760.84927409338366,1.3715196839289901e-09,2.2132526922291618e-09
-120,379919192225.81354,752.21012750649129,379919191473.60339,505070562.51052004,2.6010158524614412e+21,2.586991840365649e-11,4.338716053098324e-10,1.0477378964424133e-09,7.024905102070989e-10,2.7755575615628914e-17,-2.1829009710927494e-09,-756.39909918642377,1.3159034772532754e-09,2.288648381920666e-09
-110,356014069872.47467,751.74962552860711,356014069120.72504,473580641.45643783,8.3602544475058723e+21,4.9170966777423164e-11,8.836309461912606e-10,1.2223608791828156e-09,2.0632162645028984e-10,5.204170427930421e-17,5.1397819333942607e-09,-756.80191745874947,1.5070348848833101e-09,2.4789770236566255e-09
-100,336998895301.05902,756.73842577644507,336998894544.32062,445330756.07371747,9.8592835664218811e+21,1.3302063270326236e-10,2.874003257602453e-10,6.111804395914078e-10,2.5359803146329796e-10,5.898059818321144e-17,1.8550281311036088e-09,-762.60470206702428,7.3486757724188623e-10,1.3290755163097856e-09
-90,322362712078.80359,767.82480942941697,322362711310.97876,419838885.27691174,3.4563545205803172e+21,3.5069242648733123e-11,2.0258994481991976e-10,1.1641532182693481e-10,2.490185835313241e-11,0.0,1.5687238175132734e-09,-774.45047382990185,2.2623902176181833e-10,3.7574032774045918e-10
-80,311674084716.68317,785.77445771359976,311674083930.90869,396645731.68180352,1.2785688658323164e+21,4.782303719697012e-11,1.3318413039087318e-10,3.7834979593753815e-10,8.08100253379962e-11,1.734723475976807e-18,-1.1385594689272693e-09,-793.09779219050745,4.204972714844839e-10,7.2467543077436858e-10
-70,304572269999.31201,811.48923496398208,304572269187.82275,375325089.81814212,1.2149085806015562e+22,4.849250168081909e-11,3.575451046344824e-11,3.4924596548080444e-10,3.539168957900074e-10,2.949029909160572e-17,3.269278181505797e-10,-819.44201467415189,5.0273132945095081e-10,8.3072038137288473e-10
-60,300759818278.21161,846.0290769322097,300759817432.18256,355495841.0753426,6.8414055450464202e+21,9.277090207149286e-11,2.65146127276239e-10,2.1827872842550278e-11,8.241940463449282e-11,8.673617379884035e-18,3.1761860265958332e-09,-854.53896005367778,3.3339509687316148e-10,6.2589933236267825e-10
-50,299996468161.5177,890.63749312530217,299996467270.88019,336833414.8036049,1.4766189325947924e+24,4.075151327498361e-11,1.0436451702844352e-10,1.1641532182693481e-10,3.924860436654853e-12,2.2551405187698492e-17,1.3803194143235942e-09,-899.63151568185367,1.6729806802826223e-10,3.2475000466547499e-10
-40,302094226138.55505,946.77127552650495,302094225191.78375,319078360.26241791,2.7075951510585947e+21,6.820122244732829e-11,4.3286263462505303e-11,1.4551915228366852e-11,7.422773506959857e-11,1.6479873021779667e-17,-7.2798211903091214e-10,-956.17980993311164,1.2094542165422244e-10,2.3662849457650736e-10
-30,306913549141.01471,1016.1351033313604,306913548124.87958,302040100.90273458,8.720884543344969e+21,1.0410783346515018e-11,8.15703060652595e-11,1.0913936421275139e-11,8.000533568974788e-11,6.938893903907228e-18,1.5384008817041895e-09,-1025.8957297169165,1.1486473178830649e-10,1.7788792661121988e-10
-20,314360573494.43756,1100.7218465819701,314360572393.7157,285594925.24892598,6.7629537198079014e+21,5.4368065605103766e-11,9.973177839128766e-11,5.820766091346741e-11,5.545341963397732e-11,9.974659986866641e-18,2.2076124169479496e-09,-1110.7827395648719,1.298861202475321e-10,2.4428636891116184e-10
-10,324385358786.40283,1202.8595034216921,324385357583.54333,269678510.13659203,3.2296376063630728e+21,6.551914566443884e-11,1.0044232112704776e-10,2.4374458007514477e-10,1.645448222120649e-10,2.710505431213761e-18,2.696718334675808e-09,-1213.1821205193867,3.4091212259954758e-10,6.7056582508939755e-10
0,336981140521.5401,1325.2658591728491,336981139196.27423,254274369.31927258,8.5073850069409365e+21,8.613199042883934e-11,8.526512829121202e-13,1.0186340659856796e-10,5.518696610806728e-11,4.87890977618477e-17,-1.0488832025146166e-13,-1335.8268890765098,2.2651170411295069e-10,4.2353320850452292e-10
10,352184611734.92316,1471.1121341141272,352184610263.81104,239400249.35420802,9.8421819374679643e+21,2.0406787371030077e-11,1.5432988220709376e-11,1.6007106751203537e-10,5.438849370875687e-11,8.673617379884035e-18,5.0081620618714385e-10,-1481.9047935630681,1.6487522528035168e-10,2.8443558619528631e-10
20,370077281737.62653,1644.09709483809,370077280093.52942,225094541.49608576,8.2355388179919615e+21,4.125411123823142e-11,5.343281372915953e-12,1.1641532182693481e-10,6.80877576542116e-12,8.673617379884035e-19,1.2965002682552296e-10,-1655.1319403802272,1.2649028119236997e-10,2.2133583854611061e-10
30,390787990692.95007,1848.5333462174476,390787988844.41675,211404350.09874076,2.164132450762325e+22,1.4739498510607518e-10,1.4523493518936448e-11,2.6921043172478676e-10,5.934808200436237e-11,1.5612511283791264e-17,5.8608355668621215e-10,-1859.8387975741578,3.2885254858873066e-10,6.014069242610276e-10
40,414496692694.91772,2089.447802906644,414496690605.46991,198376189.21052191,1.1882050943391696e+22,8.259348760475405e-11,1.3812950783176348e-11,3.055902197957039e-10,7.835154747226625e-11,5.204170427930421e-18,5.8487174998955727e-10,-2101.0705749895956,3.5850732228487452e-10,6.4149929812629125e-10
50,441439658501.46417,2372.698667478342,441439656128.7655,186049608.63851187,6.2657095981367428e+22,3.3082869776990265e-11,7.673861546209082e-12,1.5279510989785194e-10,1.007194327939942e-12,4.163336342344337e-17,2.7402196223907938e-10,-2384.7043030768068,2.1255238782653921e-10,3.3251801312417228e-10
60,471916293290.33875,2705.1116243390684,471916290585.22711,174453537.90368655,1.4708122489434663e+22,2.1600499167107046e-11,4.604316927725449e-12,2.0372681319713593e-10,5.964118088286341e-11,3.469446951953614e-17,4.1731876634920617e-11,-2717.5853414058543,2.8255474691624807e-10,4.716422807859999e-10
70,506297816191.21332,3094.6384033282875,506297813096.57489,163604838.49960932,2.1147939600279483e+22,1.1368683772161603e-11,5.059064278611913e-12,1.1641532182693481e-10,1.3162804179955856e-12,2.42861286636753e-17,9.2804463209110409e-11,-3107.6865541728048,2.1651653592162273e-10,3.1929658916851622e-10
80,545038108593.43427,3550.5413846759338,545038105042.89288,153508451.11841476,1.0737845291519905e+22,7.003109203651547e-11,7.44648787076585e-12,1.4551915228366852e-10,1.943156746619934e-11,5.204170427930421e-17,3.9746908759536621e-10,-3564.2939557860063,2.4492878380780786e-10,4.2705750047389301e-10
90,588687109338.10376,4083.6085197604257,588687105254.49524,144158556.45551461,3.2921103783934541e+22,4.3655745685100555e-11,3.808509063674137e-12,1.4551915228366852e-10,1.1116441100966767e-11,3.469446951953614e-18,-9.3535381957710385e-10,-4098.2230648228706,1.6521405395997807e-10,2.695283995990394e-10
100,637907219258.05005,4706.4035438254759,637907214551.64648,135540272.59199792,4.8221980846792854e+22,2.837623469531536e-10,9.663381206337363e-13,2.3283064365386963e-10,7.194245199571014e-13,9.71445146547012e-17,-7.303887161191167e-10,-4722.0702506296393,3.8645044688003286e-10,5.6193449893271463e-10
"{'distance': [0.352, 0.732, 0.846], 'solute_4': [17.24, -1.78, 11.06], 'solute_3': [10.78, -9.69, 15.77], 'solute_2': [10.14, -8.9, 8.52], 'solute_1': [17.69, -4.86, 18.74]}","{'solute_4i': '203.0 M', 'solute_3i': '462.0 M', 'solute_1e': '42.0 uM', 'solute_2i': '223.0 M', 'solute_3e': '356.0 mM', 'solute_1i': '399.0 M', 'solute_2e': '190.0 M', 'solute_4e': '65.0 uM'}"
voltage,"current, barrier 0","current, barrier 1",solute_4 transport over barrier 0,solute_4 transport over barrier 1,solute_3 transport over barrier 0,solute_3 transport over barrier 1,solute_2 transport over barrier 0,solute_2 transport over barrier 1,solute_1 transport over barrier 0,solute_1 transport over barrier 1
-150,-0.02906824289906457,-0.02906824289906453,-0.0033768563796404243,-0.003376856344289081,46.91914939356593,46.919149389735296,-181497.05384959478,-181497.05384959074,0.43884410012144637,0.4388441000559049
-140,-0.02754502943995094,-0.027545029439950956,-0.002142839849982507,-0.0021428398596299303,64.10461642976435,64.10461643307897,-172006.21101165965,-172006.2110116634,0.6057079508001166,0.6057079511693746
-130,-0.02576425727759196,-0.02576425727759193,-0.0008586026665234557,-0.0008586026357306764,81.60843217533105,81.60843217629127,-160908.0039187206,-160908.00391872157,0.8220474221931108,0.8220474222969036
-120,-0.023765797707313956,-0.023765797707313983,0.0009368528944326282,0.0009368528685627098,99.19634864069144,99.19634864025757,-148451.0920894447,-148451.09208944364,1.095756000878291,1.0957560001758004
-110,-0.02160030319350854,-0.021600303193508592,0.004182899195770051,0.004182899146599084,116.59086630097997,116.5908663018636,-134951.38984671055,-134951.38984671177,1.4331638683893009,1.4331638685956225
-100,-0.01932472860543004,-0.01932472860542998,0.010878632029509634,0.010878632162530266,133.48919498847084,133.48919498875824,-120764.127536047,-120764.12753604761,1.8378810048973806,1.8378810051509786
-90,-0.016997368564415857,-0.016997368564415857,0.025319095819721988,0.025319095784652745,149.5880586577366,149.5880586579392,-106252.90112273085,-106252.90112273097,2.3097383970313894,2.3097383970562912
-80,-0.014672966229044765,-0.014672966229044763,0.056704258537212796,0.05670425848938976,164.61219253526244,164.61219253512925,-91759.17589201572,-91759.17589201534,2.8440920433847,2.84409204330389
-70,-0.012398450348921277,-0.012398450348921248,0.12460790213634203,0.12460790218483453,178.34213787087407,178.34213787090982,-77575.72041438556,-77575.72041438591,3.431737943871836,3.4317379442257527
-60,-0.010209764260808088,-0.01020976426080808,0.27038231969618454,0.27038231960341363,190.63682067157643,190.63682067184158,-63926.86997722244,-63926.869977222465,4.059582574995066,4.059582575077485
-50,-0.008130059456910785,-0.008130059456910808,0.5808620295309145,0.580862029490163,201.44752708407538,201.44752708417974,-50957.336966002564,-50957.33696600268,4.71204065270016,4.712040652696235
-40,-0.006169275962139805,-0.006169275962139789,1.2375536837607906,1.2375536838289918,210.8218828756302,210.8218828755869,-38729.74495486166,-38729.74495486164,5.372944394134649,5.372944394060421
-30,-0.004324888387045035,-0.004324888387045028,2.6187225071603764,2.618722507170787,218.89861120501848,218.89861120510005,-27229.58880442059,-27229.58880442058,6.027614676393142,6.027614676313137
-20,-0.0025834205242538,-0.00258342052425381,5.511559181455394,5.511559181401026,225.8955032802289,225.89550328032863,-16375.3153965339,-16375.315396533842,6.664714749253673,6.66471474919822
-10,-0.0009222459247416384,-0.0009222459247416411,11.554169851839141,11.554169851773622,232.09381412896232,232.09381412906276,-6030.874890466988,-6030.874890466745,7.277588370283525,7.2775883701189805
0,0.0006888294594130974,0.0006888294594130486,24.15881378816148,24.15881378807535,237.82219701170501,237.82219701170587,3981.6457826201076,3981.645782620006,7.864938636021118,7.864938636076305
10,0.0022867365265398336,0.0022867365265398423,50.44432019265372,50.44432019263331,243.4425930892134,243.44259308922884,13871.054040824281,13871.054040824441,8.430870800885796,8.430870800831407
20,0.0039157531871529755,0.003915753187152976,105.28000833329075,105.2800083332495,249.33956325623078,249.33956325623612,23868.739753086236,23868.739753086353,8.984448626297596,8.984448626304404
30,0.0056306969194551025,0.005630696919455087,219.70489037881094,219.70489037866355,255.91370026736982,255.91370026738434,34223.35350028061,34223.35350028088,9.53897385306225,9.538973853121599
40,0.0075048334835385875,0.007504833483538593,458.1977451800969,458.1977451801795,263.57921304343944,263.57921304345325,45198.36731163734,45198.367311637034,10.11119819708149,10.111198197159842
50,0.009646376885039576,0.009646376885039618,952.9455894111485,952.9455894111816,272.76571006493157,272.76571006493924,57072.264173990894,57072.26417399105,10.720645086363946,10.720645086364954
60,0.012229460814028308,0.012229460814028342,1967.3446929180539,1967.3446929180755,283.92483400513674,283.92483400514135,70141.3586001014,70141.35860010161,11.389191435855873,11.389191435796231
70,0.015544267835132235,0.015544267835132259,3998.210961143675,3998.2109611436863,297.5438126832941,297.54381268329917,84726.0682244059,84726.06822440602,12.1410665723877,12.141066572389017
80,0.020055937664903416,0.020055937664903364,7894.4305298056615,7894.4305298055915,314.16912176803186,314.1691217680393,101182.65486026427,101182.65486026413,13.00343543845644,13.003435438475872
90,0.02641915745170352,0.026419157451703517,14881.027699524027,14881.027699523984,334.43960633244416,334.43960633244035,119922.06183004758,119922.06183004772,14.007548091077927,14.00754809106681
100,0.035355046193974615,0.03535504619397471,26295.977536134887,26295.97753613517,359.11308916008255,359.1130891600816,141430.93678922375,141430.93678922352,15.189760244064017,15.189760244063297
"{'distance': [0.352, 0.732, 0.846], 'solute_4': [17.24, -1.78, 11.06], 'solute_3': [10.78, -9.69, 15.77], 'solute_2': [10.14, -8.9, 8.52], 'solute_1': [17.69, -4.86, 18.74]}","{'solute_4i': '203.0 M', 'solute_3i': '462.0 M', 'solute_1e': '42.0 uM', 'solute_2i': '223.0 M', 'solute_3e': '356.0 mM', 'solute_1i': '399.0 M', 'solute_2e': '190.0 M', 'solute_4e': '65.0 uM'}"
voltage,current,solute_4,solute_3,solute_2,solute_1
-150,-0.02906824289919012,-0.0033768561485203463,46.919149390380305,-181497.05385037602,0.4388441001496992
-140,-0.027545029439854082,-0.0021428399646765683,64.10461643253126,-172006.21101105763,0.6057079509601437
-130,-0.025764257277568245,-0.0008586030681954071,81.60843217614115,-160908.0039185722,0.8220474222022336
-120,-0.023765797707345906,0.0009368528230879747,99.1963486404149,-148451.0920896436,1.095756000818736
-110,-0.02160030319349214,0.004182899341458324,116.59086630172492,-134951.38984660944,1.4331638684953232
-100,-0.019324728605417757,0.010878632284857304,133.4891949886619,-120764.12753597129,1.837881004889324
-90,-0.016997368564413418,0.025319095532267966,149.58805865791112,-106252.90112271493,2.3097383970161385
-80,-0.014672966229047634,0.056704258526224294,164.612192535161,-91759.17589203351,2.844092043401446
-70,-0.012398450348917709,0.1246079018974342,178.34213787085685,-77575.72041436278,3.4317379440888045
-60,-0.010209764260805224,0.2703823198480677,190.63682067178513,-63926.869977205235,4.05958257498863
-50,-0.008130059456910959,0.5808620295574656,201.44752708418255,-50957.336966003844,4.712040652718363
-40,-0.006169275962141484,1.2375536832978469,210.8218828756366,-38729.74495487078,5.37294439416135
-30,-0.004324888387045875,2.6187225071016655,218.89861120514016,-27229.588804425788,6.027614676396746
-20,-0.0025834205242539084,5.511559181326447,225.89550328033215,-16375.31539653425,6.66471474921029
-10,-0.0009222459247418518,11.554169851926417,232.09381412912674,-6030.8748904686945,7.277588370231113
0,0.0006888294594130273,24.15881378789527,237.82219701171823,3981.645782620384,7.86493863609304
10,0.002286736526539779,50.44432019266969,243.44259308922335,13871.054040823947,8.43087080082399
20,0.003915753187152995,105.28000833315673,249.33956325624078,23868.73975308673,8.98444862631166
30,0.0056306969194549715,219.70489037885636,255.9137002673757,34223.3535002796,9.538973853112145
40,0.00750483348353836,458.19774518017584,263.579213043444,45198.36731163561,10.111198197149978
50,0.009646376885039637,952.9455894112943,272.7657100649388,57072.26417399083,10.720645086364861
