"{'distance': [0.47, 0.505, 0.735], 'solute_4': [14.77, -6.22, 19.54], 'solute_3': [8.7, -4.09, 10.31], 'solute_2': [9.31, -18.82, 17.55], 'solute_1': [10.54, -6.81, 16.77]}","{'solute_4i': '306.0 nM', 'solute_3i': '320.0 mM', 'solute_1e': '51.0 M', 'solute_2i': '88.0 nM', 'solute_3e': '35.0 uM', 'solute_1i': '65.0 nM', 'solute_2e': '331.0 nM', 'solute_4e': '207.0 M'}"
voltage,current,solute_4,solute_3,solute_2,solute_1
-150,-0.00020316022555796784,-610.3295353758825,-4.241918351823301,-1.0427519385598403e-07,-34.781376073308
-140,-0.00016957864045635918,-505.41321609985096,-3.4282656832056717,-1.1209231385930706e-07,-37.43209433621164
-130,-0.00014177269361028116,-418.1068110061244,-2.766269781124856,-1.2101227650355293e-07,-40.46068718928912
-120,-0.00011878039773535105,-345.4566044507646,-2.218674825946304,-1.310599745761571e-07,-43.88143899488439
-110,-9.980099225050218e-05,-285.0064227040194,-1.7530194545444944,-1.4224137993744838e-07,-47.705575802079984
-100,-8.4163415636989e-05,-234.71420613647308,-1.3323385496732223,-1.5453066470788348e-07,-51.93921385227386
-90,-7.129473943276153e-05,-192.88259303469627,-0.8966189959831548,-1.6785261532631917e-07,-56.580783446225645
-80,-6.068150721964779e-05,-158.10114013460884,-0.3219166613832265,-1.8205723854582614e-07,-61.61790726524823
-70,-5.1810233071082935e-05,-129.19819571078668,0.6701598615394779,-1.9688398881680564e-07,-67.0237825422094
-60,-4.406031928732507e-05,-105.20076594235093,2.7071860518074393,-2.1191112099998935e-07,-72.75323009954013
-50,-3.649853245749394e-05,-85.30098695233569,7.169890373290269,-2.2648449423983552e-07,-78.73873604922639
-40,-2.74802802882981e-05,-68.82804564618199,17.001926412890754,-2.3961776077869396e-07,-84.88701784587967
-30,-1.3883296189747595e-05,-55.22459335299723,38.287926937360766,-2.4985308694188375e-07,-91.07686720047691
-20,1.0344721340765019e-05,-44.0268769837341,83.26224785368998,-2.5506800009636606e-07,-97.15919819767849
-10,5.6900375627559324e-05,-34.84797951102396,175.94653137328422,-2.5220872883159667e-07,-102.96026638392733
0,0.00014812803122554843,-27.363716029524724,362.5535449675461,-2.3692445808484793e-07,-108.28881293407727
10,0.00032611779156083734,-21.30086710647678,730.413553384472,-2.0306823638517284e-07,-112.94734296063197
20,0.0006690279817108022,-16.427533898424407,1441.9355246132359,-1.4201945149553327e-07,-116.74687599570768
30,0.0013200004339136255,-12.545453505200927,2794.7724862738205,-4.176725970757156e-08,-119.52346866301671
40,0.002537800555351419,-9.484108654448068,5327.191263819623,1.1432473854755912e-07,-121.15391788839734
50,0.004784615648402236,-7.096410114851164,10000.758387007465,3.491781855381632e-07,-121.5676819518784
60,0.008876932814777473,-5.255650554742644,18514.276465980176,6.942178190116756e-07,-120.75246221019721
70,0.01624269268573393,-3.8533651649762053,33838.8501466956,1.1923069854146538e-06,-118.75203970113026
80,0.029355843447653917,-2.797722770858184,61122.072429061474,1.9015635009509646e-06,-115.65650238372793
90,0.052463085488672415,-2.0121247685263324,109200.17959755746,2.900153995946232e-06,-111.58640201294159
100,0.09278174078919854,-1.4337932988797186,193090.4894390693,4.291931856837246e-06,-106.67321181497923
"{'distance': [0.47, 0.505, 0.735], 'solute_4': [14.77, -6.22, 19.54], 'solute_3': [8.7, -4.09, 10.31], 'solute_2': [9.31, -18.82, 17.55], 'solute_1': [10.54, -6.81, 16.77]}","{'solute_4i': '306.0 nM', 'solute_3i': '320.0 mM', 'solute_1e': '51.0 M', 'solute_2i': '88.0 nM', 'solute_3e': '35.0 uM', 'solute_1i': '65.0 nM', 'solute_2e': '331.0 nM', 'solute_4e': '207.0 M'}"
voltage,largest element,smallest element,element difference,element ratio difference,condition number,transport error solute_4,transport error solute_3,transport error solute_2,transport error solute_1,current errors,smallest eigenvalue,second smallest eigenvalue,sum absolute errors,sum squared errors
-150,275086757505.99658,3.0059783008388625,275086757502.9906,91513221312.751846,6.385001187111338e+21,4.217781679471955e-11,1.4352963262354024e-12,2.1822436677897847e-11,2.1280754936015e-11,7.26415455565288e-18,-4.6789502296164848e-10,-3.0060589787113456,5.1636986100574978e-11,8.6467614779416405e-11
-140,208465609849.60101,3.0479617413855116,208465609846.55304,68395087451.07766,2.1444209246946533e+21,2.7841906558023766e-10,9.872103134966892e-13,4.970849397717736e-11,3.281925842202327e-10,4.5075705321084847e-17,2.1960949126958871e-10,-3.0480581833788287,4.3317505904222532e-10,6.5960240713109058e-10
-130,159371206933.49619,3.0905719095389359,159371206930.40561,51566898165.871132,2.2851586204131331e+22,1.3574208423960954e-10,5.329070518200751e-15,6.0362437577966465e-12,1.2717293884634273e-10,2.211772431870429e-17,5.8137240333910786e-10,-3.09068771108935,1.8640547932222403e-10,2.7252352044688285e-10
-120,122883085218.67253,3.1338145801845982,122883085215.53871,39211983375.045143,7.0831635608944548e+20,2.6790303309098817e-10,7.678302438307583e-13,9.499704178108222e-12,2.7064572805102216e-10,4.3639137442541553e-17,4.433132122975908e-10,-3.133954108083858,3.8153390707574026e-10,5.5550960814838846e-10
-110,95525728552.783295,3.1776958786717833,95525728549.605606,30061318703.887814,2.633037722480602e+21,3.0809133022557944e-11,5.575540029667536e-13,1.2218225620417759e-12,3.3942626487259986e-11,4.363913744254155e-18,5.6702904574735292e-11,-3.1778644116520844,4.5777771842478757e-11,6.8627015122101412e-11
-100,74831968773.578949,3.22222226210677,74831968770.35672,23223714159.510502,3.5607143249010616e+20,4.206412995699793e-12,1.1501910535116622e-13,9.19809603118302e-12,3.090860900556436e-12,4.2012834183813297e-19,-7.6099454669077503e-12,-3.2224261445065197,1.1306563892119914e-11,2.0681798911263358e-11
-90,59040612881.287811,3.2674005024607791,59040612878.020409,18069597784.790241,1.584851519889052e+21,1.226396761921933e-10,2.2370993946196904e-13,2.659542051254154e-12,1.2088463563486584e-10,2.0450763478507827e-17,1.7499436385700616e-10,-3.2676473063958635,1.7303327680385084e-10,2.4981117456752966e-10
-80,46886601675.712013,3.3132376713356089,46886601672.398773,14151294391.389502,3.4211983361604479e+20,8.617462299298495e-11,6.061817714453355e-13,2.7886134620787984e-12,8.885336910680053e-11,1.3525422101756668e-17,1.1676052844664241e-10,-3.313536358322378,1.238928934690741e-10,1.8165575678885312e-10
-70,37455041785.224998,3.3597411262436858,37455041781.865257,11148192785.6451,9.3835101308484361e+20,1.957403128471924e-10,9.104939024950909e-13,5.968881913813565e-13,1.9400658857193775e-10,3.198396408832238e-17,2.722055934544166e-10,-3.3601021948318759,2.7495024066907683e-10,3.9258999279560489e-10
-60,30079395450.850197,3.4069184982718914,30079395447.443279,8828915474.8220482,8.9992016245453095e+19,5.229594535194337e-12,2.6290081223123707e-13,3.5702857932903476e-12,1.0231815394945443e-11,2.8663594935085523e-18,1.1488093763101051e-12,-3.4073540980154253,1.4992701214957012e-11,2.7934796240514786e-11
-50,24270251216.399036,3.4547776810100506,24270251212.94426,7025126783.0650406,7.2577440377187058e+19,1.277413730349508e-10,3.5136338283336954e-12,1.0858887151498426e-11,1.184901066153543e-10,2.190088388420719e-17,-1.7489812196159863e-10,-3.4553016670592736,1.7603710115243082e-10,2.6357406914586518e-10
-40,19665316253.286163,3.5033268206354671,19665316249.782837,5613326206.8079271,3.6671379162354319e+19,6.512834715977078e-11,4.0394354527961696e-12,9.260121094715787e-12,5.9586113820842e-11,7.894347068410079e-18,9.330129146742828e-11,-3.5039547175919998,9.0601565536724937e-11,1.4745002495462206e-10
-30,15994171192.46526,3.5525743070544737,15994171188.912685,4502135581.1488762,1.3797167890317001e+20,6.701554866594961e-10,3.645084234449314e-12,7.628705243003148e-12,6.393321427822229e-10,1.128247885742728e-16,9.2426683423802905e-10,-3.5533231478232681,9.2701155678588179e-10,1.3464120116133543e-09
-20,13053324516.037817,3.6025287660107059,13053324512.435287,3623378288.9380059,3.0038435548580995e+19,2.743831828411203e-10,3.055333763768431e-12,7.1347450835763625e-12,2.724078740357072e-10,4.3940681171764084e-17,-3.9685370186317575e-10,-3.6034167741070209,3.8488804111026985e-10,5.6680083640892748e-10
-10,10688479157.847433,3.6531990520777771,10688479154.194235,2925786141.2638607,2.1525040215211061e+19,9.21787091101578e-11,2.8421709430404007e-12,1.249306209958727e-12,9.687539659353206e-11,1.2854572007531262e-17,1.0473077829401286e-10,-3.6542451456768825,1.4391327205333792e-10,2.2194387994112219e-10
0,8781873361.9489326,3.7045942424613214,8781873358.244339,2370535823.1389685,2.4868340817401721e+19,5.406519676398602e-10,6.252776074688882e-13,1.6958029030253593e-11,5.911147127335425e-10,8.158621347953421e-17,-8.4011071051563934e-10,-3.7058173586656018,7.9486297368203948e-10,1.1688899121623658e-09
10,7243214523.2705488,3.7567236315419792,7243214519.5138254,1928066909.8081911,4.7040869408050856e+19,3.0244251547628664e-10,6.707523425575346e-12,2.631737032956906e-11,2.668514298420632e-10,5.312590645178972e-17,-4.8427292969476999e-10,-3.7581418984139998,4.0130918510689321e-10,6.1316882669394668e-10
20,6003180457.4505997,3.8095967260969772,6003180453.6410027,1575804708.2324646,8.8619731316625275e+18,2.6280844167558826e-10,2.2737367544323206e-12,3.5890742802590853e-12,1.7041656974470243e-10,5.746271514173174e-17,4.1308950655713083e-10,-3.8112265438092301,3.2356393795892371e-10,5.1427034917887748e-10
30,5008780547.6176929,3.8632232411434506,5008780543.7544699,1296528891.8005102,2.9364845225416143e+19,1.1104539510142786e-10,1.5006662579253316e-11,1.3841901944632356e-12,8.43698444441543e-11,1.431146867680866e-17,-1.9092058899763351e-10,-3.8650783630587702,1.5249928180995241e-10,2.4512877014673529e-10
40,4220093217.5272036,3.9176130963517219,4220093213.6095905,1077210309.88414,4.4771891676971131e+18,2.517985819849855e-10,1.8189894035458565e-12,5.4498510424504074e-12,2.615792027427233e-10,3.859759734048396e-17,5.368409811234337e-10,-3.9197038170208436,3.6359336444447634e-10,5.2977354664598963e-10
50,3608056613.4640508,3.9727764129813039,3608056609.4912744,908195236.37788737,1.8010390672059066e+19,4.064766301326017e-10,5.4569682106375694e-11,1.5587224611805265e-11,2.7000623958883807e-10,1.1015494072452725e-16,9.2363277906217604e-10,-3.9751089601047589,5.2341733985666064e-10,9.2417243172451813e-10
60,3153107678.254581,4.0287235112966213,3153107674.2258573,782656757.01328325,4.3912543138875105e+18,1.8118839761882555e-11,3.2741809263825417e-11,7.0689134448995e-12,9.653433608036721e-11,3.469446951953614e-18,-5.5528925164777901e-11,-4.0312997018330616,1.2188810154929755e-10,2.1488845295195014e-10
70,2844556411.0239158,4.0854649084232513,2844556406.9384508,696262597.96262622,2.9543399263706322e+18,1.6991386075915216e-10,5.820766091346741e-11,2.121870402127491e-12,2.1290702534315642e-10,5.204170427930421e-17,-4.807929124484424e-10,-4.0882820674435481,2.8289736279434903e-10,4.5686922127419205e-10
80,2680658599.3474708,4.1430113166089635,2680658595.2044597,647031445.1232487,4.3128303270838231e+19,1.919153724827538e-10,2.1827872842550278e-11,2.4849516111399026e-12,2.369091589571326e-10,3.469446951953614e-17,-6.3092576335221948e-10,-4.1460623809864732,3.1088496258605325e-10,5.2066955824950356e-10
90,2669420946.8612218,4.2013736418570389,2669420942.6598482,635368613.79492009,3.7584359296175836e+18,3.880860077742909e-10,3.92901711165905e-10,2.1567156820516376e-12,8.319034350279253e-11,5.551115123125783e-17,1.4726950191728387e-09,-4.2046472934378585,5.480995593444115e-10,8.8232021341894118e-10
100,2830245446.0814481,4.2605629829022353,2830245441.8208852,664289075.7487464,2.7543448136779366e+19,1.5375944961704135e-10,1.4551915228366852e-10,8.783305190408481e-13,8.927258932089899e-11,1.1102230246251565e-16,-6.7486897259572226e-10,-4.2640435811399975,2.7765099575825879e-10,5.5339636128790004e-10
"{'distance': [0.47, 0.505, 0.735], 'solute_4': [14.77, -6.22, 19.54], 'solute_3': [8.7, -4.09, 10.31], 'solute_2': [9.31, -18.82, 17.55], 'solute_1': [10.54, -6.81, 16.77]}","{'solute_4i': '306.0 nM', 'solute_3i': '320.0 mM', 'solute_1e': '51.0 M', 'solute_2i': '88.0 nM', 'solute_3e': '35.0 uM', 'solute_1i': '65.0 nM', 'solute_2e': '331.0 nM', 'solute_4e': '207.0 M'}"
voltage,"current, barrier 0","current, barrier 1",solute_4 transport over barrier 0,solute_4 transport over barrier 1,solute_3 transport over barrier 0,solute_3 transport over barrier 1,solute_2 transport over barrier 0,solute_2 transport over barrier 1,solute_1 transport over barrier 0,solute_1 transport over barrier 1
-150,-0.00020316022555796057,-0.00020316022555796784,-610.3295353758404,-610.3295353758825,-4.241918351821866,-4.241918351823301,-1.0429701629266193e-07,-1.0427519385598403e-07,-34.781376073329284,-34.781376073308
-140,-0.00016957864045640425,-0.00016957864045635918,-505.4132161001294,-505.41321609985096,-3.428265683206659,-3.4282656832056717,-1.1214202235328423e-07,-1.1209231385930706e-07,-37.43209433588345,-37.43209433621164
-130,-0.00014177269361030328,-0.00014177269361028116,-418.10681100626016,-418.1068110061244,-2.766269781124851,-2.766269781124856,-1.2100624025979513e-07,-1.2101227650355293e-07,-40.460687189161945,-40.46068718928912
-120,-0.00011878039773539469,-0.00011878039773535105,-345.4566044510325,-345.4566044507646,-2.218674825945536,-2.218674825946304,-1.310694742803352e-07,-1.310599745761571e-07,-43.881438994613745,-43.88143899488439
-110,-9.980099225050655e-05,-9.980099225050218e-05,-285.00642270405024,-285.0064227040194,-1.7530194545439368,-1.7530194545444944,-1.4224260176001042e-07,-1.4224137993744838e-07,-47.70557580204604,-47.705575802079984
-100,-8.416341563698859e-05,-8.4163415636989e-05,-234.71420613646887,-234.71420613647308,-1.3323385496731073,-1.3323385496732223,-1.5453986280391466e-07,-1.5453066470788348e-07,-51.93921385227077,-51.93921385227386
-90,-7.129473943278198e-05,-7.129473943276153e-05,-192.8825930348189,-192.88259303469627,-0.8966189959833785,-0.8966189959831548,-1.6785527486837043e-07,-1.6785261532631917e-07,-56.58078344610476,-56.580783446225645
-80,-6.0681507219661316e-05,-6.068150721964779e-05,-158.10114013469502,-158.10114013460884,-0.3219166613826203,-0.3219166613832265,-1.8206002715928822e-07,-1.8205723854582614e-07,-61.617907265159374,-61.61790726524823
-70,-5.181023307111492e-05,-5.1810233071082935e-05,-129.19819571098242,-129.19819571078668,0.6701598615385674,0.6701598615394779,-1.9688339192861426e-07,-1.9688398881680564e-07,-67.0237825420154,-67.0237825422094
-60,-4.40603192873222e-05,-4.406031928732507e-05,-105.2007659423457,-105.20076594235093,2.707186051807702,2.7071860518074393,-2.1191469128578264e-07,-2.1191112099998935e-07,-72.7532300995299,-72.75323009954013
-50,-3.6498532457472036e-05,-3.649853245749394e-05,-85.30098695220795,-85.30098695233569,7.169890373293782,7.169890373290269,-2.2649535312698702e-07,-2.2648449423983552e-07,-78.73873604934488,-78.73873604922639
-40,-2.7480280288305994e-05,-2.74802802882981e-05,-68.82804564624712,-68.82804564618199,17.001926412894793,17.001926412890754,-2.3960850065759924e-07,-2.3961776077869396e-07,-84.88701784582008,-84.88701784587967
-30,-1.388329618986042e-05,-1.3883296189747595e-05,-55.22459335366739,-55.22459335299723,38.28792693735712,38.287926937360766,-2.4984545823664075e-07,-2.4985308694188375e-07,-91.07686719983758,-91.07686720047691
-20,1.034472134080896e-05,1.0344721340765019e-05,-44.026876983459715,-44.0268769837341,83.26224785368693,83.26224785368998,-2.550608653512825e-07,-2.5506800009636606e-07,-97.1591981979509,-97.15919819767849
-10,5.690037562754647e-05,5.6900375627559324e-05,-34.84797951111614,-34.84797951102396,175.94653137328706,175.94653137328422,-2.5220997813780663e-07,-2.5220872883159667e-07,-102.96026638383046,-102.96026638392733
0,0.00014812803122563002,0.00014812803122554843,-27.363716028984072,-27.363716029524724,362.5535449675467,362.5535449675461,-2.3690750005581768e-07,-2.3692445808484793e-07,-108.28881293466839,-108.28881293407727
10,0.00032611779156089046,0.00032611779156083734,-21.300867106174337,-21.30086710647678,730.4135533844787,730.413553384472,-2.030945537555024e-07,-2.0306823638517284e-07,-112.94734296089882,-112.94734296063197
20,0.0006690279817107447,0.0006690279817108022,-16.427533898687216,-16.427533898424407,1441.9355246132336,1441.9355246132359,-1.42015862421253e-07,-1.4201945149553327e-07,-116.74687599553727,-116.74687599570768
30,0.0013200004339136398,0.0013200004339136255,-12.545453505089881,-12.545453505200927,2794.7724862738055,2794.7724862738205,-4.176864389776602e-08,-4.176725970757156e-08,-119.52346866310108,-119.52346866301671
40,0.0025378005553513805,0.002537800555351419,-9.484108654699867,-9.484108654448068,5327.191263819621,5327.191263819623,1.1433018839860157e-07,1.1432473854755912e-07,-121.15391788813577,-121.15391788839734
50,0.004784615648402126,0.004784615648402236,-7.09641011525764,-7.096410114851164,10000.75838700741,10000.758387007465,3.49193772762775e-07,3.491781855381632e-07,-121.56768195160839,-121.5676819518784
60,0.008876932814777477,0.008876932814777473,-5.255650554724525,-5.255650554742644,18514.27646598021,18514.276465980176,6.942107500982307e-07,6.942178190116756e-07,-120.75246221029374,-120.75246221019721
70,0.016242692685733983,0.01624269268573393,-3.8533651648062914,-3.8533651649762053,33838.85014669566,33838.8501466956,1.1923048635442517e-06,1.1923069854146538e-06,-118.75203970134316,-118.75203970113026
80,0.02935584344765395,0.029355843447653917,-2.797722770666269,-2.797722770858184,61122.072429061496,61122.072429061474,1.9015659859025758e-06,1.9015635009509646e-06,-115.65650238396483,-115.65650238372793
90,0.05246308548867247,0.052463085488672415,-2.0121247689144184,-2.0121247685263324,109200.17959755786,109200.17959755746,2.9001518392305498e-06,2.900153995946232e-06,-111.58640201302478,-111.58640201294159
100,0.09278174078919865,0.09278174078919854,-1.4337932987259592,-1.4337932988797186,193090.48943906944,193090.4894390693,4.291932735167765e-06,4.291931856837246e-06,-106.6732118150685,-106.67321181497923
"{'distance': [0.47, 0.505, 0.735], 'solute_4': [14.77, -6.22, 19.54], 'solute_3': [8.7, -4.09, 10.31], 'solute_2': [9.31, -18.82, 17.55], 'solute_1': [10.54, -6.81, 16.77]}","{'solute_4i': '306.0 nM', 'solute_3i': '320.0 mM', 'solute_1e': '51.0 M', 'solute_2i': '88.0 nM', 'solute_3e': '35.0 uM', 'solute_1i': '65.0 nM', 'solute_2e': '331.0 nM', 'solute_4e': '207.0 M'}"
voltage,current,solute_4,solute_3,solute_2,solute_1
-150,-0.00020316022555499964,-610.3295353664167,-4.2419183521355315,-1.0427525408736119e-07,-34.78137607277468
-140,-0.00016957864045062557,-505.41321608323375,-3.428265682765781,-1.1209243037010489e-07,-37.43209433497534
-130,-0.00014177269361106601,-418.1068110072444,-2.7662697819763284,-1.2101226785652029e-07,-40.460687189394044
-120,-0.00011878039773897902,-345.45660446003745,-2.218674826920866,-1.3105989545487265e-07,-43.88143899606164
-110,-9.980099224997839e-05,-285.00642270209016,-1.7530194548490652,-1.4224139814295478e-07,-47.705575801755096
-100,-8.416341563981923e-05,-234.71420614403868,-1.33233854995947,-1.545305856561033e-07,-51.93921385395079
-90,-7.129473943260872e-05,-192.88259303337563,-0.8966189966752455,-1.6785263064463701e-07,-56.58078344583683
-80,-6.068150722064183e-05,-158.10114013794188,-0.3219166607970825,-1.8205719554315661e-07,-61.61790726654564
-70,-5.181023307094706e-05,-129.19819570996748,0.6701598611319834,-1.9688400063499347e-07,-67.02378254177711
-60,-4.406031928531655e-05,-105.20076593684207,2.707186051042239,-2.119112098869444e-07,-72.75323009572459
-50,-3.649853245555798e-05,-85.30098694778576,7.169890372884781,-2.2648457680989437e-07,-78.73873604502509
-40,-2.748028028622362e-05,-68.82804564101387,17.001926411634884,-2.396178668092461e-07,-84.88701783949888
-30,-1.3883296189974407e-05,-55.224593353992844,38.28792693809443,-2.4985306377200565e-07,-91.07686720210252
-20,1.0344721341498396e-05,-44.02687698643562,83.26224785900807,-2.5506792799538724e-07,-97.15919820365187
