"{'distance': [0.25, 0.5, 0.75], 'solute_3': [8.0, -10.0, 8.0], 'solute_2': [8.0, -2.0, 8.0], 'solute_1': [15.0, -20.0, 15.0]}","{'solute_3i': '1.0 M', 'solute_1e': '1.0 fM', 'solute_2i': '1.0 fM', 'solute_3e': '1.0 M', 'solute_1i': '1.0 M', 'solute_2e': '1.0 M'}"
voltage,current,solute_3,solute_2,solute_1
-150,-0.011898336600874342,-33560.4192392077,-7150.925948052977,0.00018803336911893398
-140,-0.006628959219847861,-18528.111138690925,-4323.049219943047,0.0002310349177996815
-130,-0.003688207990240054,-10209.106795191465,-2604.308763023719,0.00028331988486888365
-120,-0.00205052255407399,-5617.790118979884,-1564.1867111469237,0.00034698159015815466
-110,-0.0011396448646225287,-3088.4405596624797,-937.0077736559342,0.0004245724419444513
-100,-0.0006333476410218568,-1696.7204782978813,-560.0409870689878,0.0005192048570896932
-90,-0.00035200100393166284,-931.5566029265057,-334.14776344666825,0.0006346758608353834
-80,-0.00019565201571605055,-511.0605450356142,-199.17893629832682,0.0007756190767731
-70,-0.00010873971643748387,-280.0066210935239,-118.76341248021302,0.000947691046517431
-60,-6.0393964443778755e-05,-153.00953210139292,-70.97429036665771,0.0011577972724722916
-50,-3.3464987395178475e-05,-83.13315017654239,-42.631580791497136,0.0014143701109379046
-40,-1.8424069611309242e-05,-44.58615160094004,-25.83782893607097,0.0017277065871231997
-30,-9.975163129946488e-06,-23.196786843195643,-15.877582970014624,0.002110382052864744
-20,-5.1730009734937926e-06,-11.174634218228388,-9.946779541426631,0.002577754566569484
-10,-2.3777957475478425e-06,-4.231595290338969,-6.3857766667810045,0.003148581445319194
0,-6.743954620275342e-07,-2.824407374646398e-13,-4.217401044704844,0.0038457719546574954
10,4.506796218545539e-07,2.836628972396684,-2.869421460693257,0.00469730680935099
20,1.2889814106064468e-06,5.021491818264332,-2.008382137607686,0.0057373610465233735
30,2.0103221785163066e-06,6.987695762907467,-1.4405792960598418,0.007007675747630972
40,2.7187776357175424e-06,9.00373095715197,-1.0534340901078854,0.008559233087810812
50,3.4841795049324137e-06,11.254554488065066,-0.7810818449664796,0.010454302496868066
60,4.360059794401354e-06,13.887602918940116,-0.584390444046928,0.012768939791695737
70,5.394169862656703e-06,17.039888946510608,-0.43949767070034634,0.015596039453497799
80,6.635008471827479e-06,20.855124419043708,-0.3313153046520646,0.019049062956103584
90,8.13629908181105e-06,25.495867447758652,-0.2498842983831211,0.023266592228944748
100,9.960529988989338e-06,31.153547825864866,-0.1883384948532088,0.02841789156591428
"{'distance': [0.25, 0.5, 0.75], 'solute_3': [8.0, -10.0, 8.0], 'solute_2': [8.0, -2.0, 8.0], 'solute_1': [15.0, -20.0, 15.0]}","{'solute_3i': '1.0 M', 'solute_1e': '1.0 fM', 'solute_2i': '1.0 fM', 'solute_3e': '1.0 M', 'solute_1i': '1.0 M', 'solute_2e': '1.0 M'}"
voltage,largest element,smallest element,element difference,element ratio difference,condition number,transport error solute_3,transport error solute_2,transport error solute_1,current errors,smallest eigenvalue,second smallest eigenvalue,sum absolute errors,sum squared errors
-150,50374429049.281479,0.077442896949789397,50374429049.204033,650471909411.42175,1.1922374551083635e+18,4.3655745685100555e-11,1.5188561519607902e-10,1.6517841050023643e-11,3.469446951953614e-18,1.6435506705603231e-09,-4.2936785589313491,1.8054292769839135e-10,2.984612001988296e-10
-140,42073838438.320557,0.063481987834872827,42073838438.257072,662768131139.20728,1.237931000460265e+18,9.094947017729282e-11,4.411049303598702e-10,5.738117424790301e-11,2.3418766925686896e-17,9.3712371196374988e-11,-5.2132152586414371,5.3929700446456846e-10,8.8047387436507307e-10
-130,35211832610.413239,0.052068833792147294,35211832610.361168,676255449679.83655,1.2545268327295905e+18,3.8198777474462986e-11,1.496118784416467e-10,5.1177113653648465e-11,1.9949319973733282e-17,-2.5128124199469415e-09,-6.3419818468523834,2.158671693534606e-10,3.8223317566643544e-10
-120,29536804498.828217,0.042745384875576366,29536804498.785473,690994000517.34717,6.8551986323619494e+17,2.3646862246096134e-11,1.0459189070388675e-11,7.452712167017872e-11,1.431146867680866e-17,3.3149181316582954e-10,-7.7252799072216574,8.8428375022395602e-11,1.4842356510502697e-10
-110,24842520767.115459,0.035137458343288512,24842520767.080322,707009611350.00659,1.1089794150237966e+18,8.185452315956354e-12,8.753886504564434e-11,9.80140543922238e-11,2.0166160408230382e-17,-6.9108180831591037e-10,-9.4186245678816611,1.3302305755957884e-10,2.1397462968142378e-10
-100,20960060375.299343,0.028939721390301112,20960060375.270405,724266142462.72314,1.6719863198765908e+18,7.503331289626658e-12,5.4569682106375694e-11,4.9189772697785794e-11,4.662069341687669e-18,-3.8186190320921298e-10,-11.489970344831411,7.495594020659066e-11,1.2399571300281131e-10
-90,17751230118.274525,0.023903437070960341,17751230118.250622,742622496738.76514,9.3251453642962483e+17,7.958078640513122e-12,2.7284841053187847e-12,2.414724973795468e-11,5.637851296924623e-18,-4.7504405790987914e-11,-14.022434325326012,3.1641444702843327e-11,5.3421610884951676e-11
-80,15103194829.794424,0.019826481611937403,15103194829.774597,761768786081.58508,1.6633325774118656e+18,6.650680006714538e-12,8.981260180007666e-12,3.59703090880778e-11,1.2224379494774062e-17,1.2315809898061532e-10,-17.117624709622319,5.0587369937795563e-11,8.5395662763332325e-11
-70,12924108508.579399,0.016545232475500174,12924108508.562855,781137921616.82483,3.4425738116367149e+17,3.581135388230905e-12,3.282707439211663e-11,2.3632222264161062e-11,1.179069862577986e-18,-1.722763088597961e-10,-20.899706513097854,4.2551569415145928e-11,7.2801775025110871e-11
-60,11139572625.60087,0.013928001612556251,11139572625.586943,799796908090.4198,4.1239377430750605e+17,1.5347723092418164e-12,2.1501023184100632e-11,1.5702365623038173e-12,3.4558944247975454e-18,1.1206527047481762e-10,-25.520365866024235,3.0544959615919141e-11,4.6163899092288574e-11
-50,9689780917.2788677,0.011869750358854854,9689780917.2669983,816342435546.69836,2.5542434335756822e+17,8.242295734817162e-13,2.5430324512853986e-11,2.1663704684316e-11,3.130633773051894e-18,2.0060916229108989e-11,-31.164871820727214,3.3540853416785068e-11,5.0852801136702652e-11
-40,8527237382.8819103,0.010287873864574618,8527237382.8716221,828862940499.75635,3.8487716122959328e+17,1.0018652574217413e-12,3.062439191126032e-12,6.392153516568411e-12,2.2158381900172497e-18,-7.8643690853557073e-11,-38.059483362014056,1.1078017558299946e-11,1.8904810009101602e-11
-30,7614957084.6653862,0.0091188858716549689,7614957084.6562672,835075380023.73999,9.354796999512855e+17,7.140954494389007e-13,2.2094326368460315e-11,4.507017155319648e-12,1.866860615748478e-18,-9.5940076856696225e-11,-46.480512921140345,2.8166815917483986e-11,4.4183722652801904e-11
-20,6925078613.2465239,0.0083158707873448087,6925078613.2382078,832754475187.99731,7.8087810161455022e+18,1.1546319456101628e-13,2.7418067816142866e-11,1.154508953715716e-11,7.301424005332069e-19,-8.7557744115772298e-11,-56.765435876028995,3.3776547985735299e-11,5.5072935795097422e-11
-10,6437833500.3943291,0.0078466007967335702,6437833500.3864822,820461454222.8667,6.0199955324082534e+17,3.019806626980426e-13,6.221689829999377e-12,3.890766615138874e-12,2.340352033263632e-18,-1.9240676793451889e-11,-69.326518727073307,1.2739086005292413e-11,2.0823001309344669e-11
0,6140832094.7710304,0.0076922424473793265,6140832094.7633381,798314943500.4032,1.2502910450140787e+19,5.648814749292796e-13,1.6686207970906253e-11,9.455283778159185e-13,2.7951028468207843e-18,1.8430209903385524e-11,-84.667510998067115,2.3897366752658507e-11,3.5268295228707558e-11
10,6028638033.5095863,0.0078466007967335702,6028638033.5017395,768312061449.49084,3.5350416259662579e+17,4.947153797729698e-13,1.1075140804450712e-11,1.6590635115720787e-11,3.3828907726560654e-18,1.2147835603800919e-10,-103.40401258003683,2.0577058530897664e-11,3.318535897467445e-11
20,6102614949.3931923,0.0083158707873448087,6102614949.3848763,733851583971.245,3.7072741021137728e+17,4.707345624410664e-13,5.849543072145025e-12,2.0320715596322536e-12,1.351017550870609e-19,1.3640279221966295e-11,-126.28824285550684,7.0546555388870555e-12,1.1699004612286679e-11
30,6371039910.8736792,0.0091188858716549689,6371039910.8645601,698664288658.04102,1.3802919710168349e+17,5.648814749292796e-13,2.715605518233133e-13,2.3131817641908192e-12,6.039344913923161e-19,2.7280210537530745e-11,-154.23916005646771,3.1330269897229335e-12,5.1677880724687597e-12
40,6849488735.2909555,0.010287873864574618,6849488735.2806673,665782728817.91089,2.2565053546646582e+17,1.1528555887707626e-12,2.509104035652854e-13,1.585514705637614e-12,9.177601983500344e-19,4.2767177496201729e-12,-188.37918641083564,3.5817817688274966e-12,5.975780634215333e-12
50,7561509170.9627581,0.011869750358854854,7561509170.9508886,637040286641.06311,2.919919915376601e+17,1.007194327939942e-12,2.297939616369149e-12,4.404782094624693e-12,2.1019122586115463e-18,1.2771970397014057e-10,-230.07910470756644,9.2282253832886768e-12,1.542130138865172e-11
60,8539609446.4049196,0.013928001612556251,8539609446.3909912,613125248255.74146,1.1657694420149773e+17,1.6857626405908377e-12,6.222800053024002e-13,6.813537581362716e-12,1.74319380544935e-18,-6.6356814578181464e-11,-281.01298641577597,9.0940969458447964e-12,1.4871982118025429e-11
70,9826602295.949913,0.016545232475500174,9826602295.9333687,593923494910.14624,3.2523222586549299e+17,2.5224267119483557e-12,2.688460565281048e-12,5.130762134597511e-12,2.8841471854008927e-18,-5.2355989028647325e-10,-343.225357519461,1.2112250855859707e-11,2.067300150510043e-11
80,11477358796.121695,0.019826481611937403,11477358796.101868,578890345789.40356,3.7008414962905216e+17,2.9523050670832163e-12,3.6256553315183737e-12,3.0622587798845302e-12,6.157929526538763e-19,-3.1402056721884753e-10,-419.21327048395494,6.7202949793753851e-12,1.3370898138687082e-11
90,13561042756.785784,0.023903437070960341,13561042756.761881,567326059282.9447,1.9218900981503914e+17,1.2445156016838155e-11,2.292166456641098e-12,1.512336783582313e-11,1.2248096417297183e-18,-2.0121130410462154e-09,-512.02655006589748,2.0337396473817017e-11,3.483115879054921e-11
100,16163915663.527281,0.028939721390301112,16163915663.498341,558537362731.64233,3.3787884195484429e+17,4.369837824924616e-13,1.9694801345337964e-12,6.459496132427134e-12,1.6127507315721878e-18,-3.7379310627809005e-09,-625.39022176879701,7.8900527346269899e-12,1.2919665337562947e-11
"{'distance': [0.25, 0.5, 0.75], 'solute_3': [8.0, -10.0, 8.0], 'solute_2': [8.0, -2.0, 8.0], 'solute_1': [15.0, -20.0, 15.0]}","{'solute_3i': '1.0 M', 'solute_1e': '1.0 fM', 'solute_2i': '1.0 fM', 'solute_3e': '1.0 M', 'solute_1i': '1.0 M', 'solute_2e': '1.0 M'}"
voltage,"current, barrier 0","current, barrier 1",solute_3 transport over barrier 0,solute_3 transport over barrier 1,solute_2 transport over barrier 0,solute_2 transport over barrier 1,solute_1 transport over barrier 0,solute_1 transport over barrier 1
-150,-0.011898336600874339,-0.011898336600874342,-33560.419239207746,-33560.4192392077,-7150.925948052825,-7150.925948052977,0.00018803335260109293,0.00018803336911893398
-140,-0.006628959219847837,-0.006628959219847861,-18528.111138691016,-18528.111138690925,-4323.049219942606,-4323.049219943047,0.00023103486041850725,0.0002310349177996815
-130,-0.003688207990240034,-0.003688207990240054,-10209.106795191426,-10209.106795191465,-2604.3087630235696,-2604.308763023719,0.00028331983369177,0.00028331988486888365
-120,-0.002050522554073976,-0.00205052255407399,-5617.790118979908,-5617.790118979884,-1564.1867111469342,-1564.1867111469237,0.00034698166468527633,0.00034698159015815466
-110,-0.0011396448646225086,-0.0011396448646225287,-3088.4405596624715,-3088.4405596624797,-937.0077736560218,-937.0077736559342,0.0004245725399585057,0.0004245724419444513
-100,-0.0006333476410218522,-0.0006333476410218568,-1696.7204782978888,-1696.7204782978813,-560.0409870690423,-560.0409870689878,0.0005192049062794659,0.0005192048570896932
-90,-0.0003520010039316685,-0.00035200100393166284,-931.5566029264977,-931.5566029265057,-334.147763446671,-334.14776344666825,0.0006346758366881336,0.0006346758608353834
-80,-0.00019565201571603832,-0.00019565201571605055,-511.06054503560756,-511.0605450356142,-199.1789362983358,-199.17893629832682,0.0007756191127434091,0.0007756190767731
-70,-0.00010873971643748505,-0.00010873971643748387,-280.0066210935203,-280.0066210935239,-118.7634124801802,-118.76341248021302,0.0009476910228852088,0.000947691046517431
-60,-6.03939644437753e-05,-6.0393964443778755e-05,-153.00953210139446,-153.00953210139292,-70.97429036663621,-70.97429036665771,0.0011577972740425282,0.0011577972724722916
-50,-3.3464987395181605e-05,-3.3464987395178475e-05,-83.13315017654321,-83.13315017654239,-42.631580791471706,-42.631580791497136,0.0014143700892741999,0.0014143701109379046
-40,-1.8424069611307026e-05,-1.8424069611309242e-05,-44.586151600941044,-44.58615160094004,-25.837828936067908,-25.83782893607097,0.0017277065935153533,0.0017277065871231997
-30,-9.975163129948355e-06,-9.975163129946488e-06,-23.19678684319493,-23.196786843195643,-15.877582970036718,-15.877582970014624,0.002110382057371761,0.002110382052864744
-20,-5.173000973494523e-06,-5.1730009734937926e-06,-11.174634218228503,-11.174634218228388,-9.946779541454049,-9.946779541426631,0.0025777545781145734,0.002577754566569484
-10,-2.377795747545502e-06,-2.3777957475478425e-06,-4.231595290338667,-4.231595290338969,-6.385776666774783,-6.3857766667810045,0.0031485814492099606,0.003148581445319194
0,-6.743954620303293e-07,-6.743954620275342e-07,2.824407374646398e-13,-2.824407374646398e-13,-4.21740104472153,-4.217401044704844,0.003845771953711967,0.0038457719546574954
10,4.5067962185117103e-07,4.506796218545539e-07,2.836628972397179,2.836628972396684,-2.8694214606821817,-2.869421460693257,0.004697306792760355,0.00469730680935099
20,1.2889814106063117e-06,1.2889814106064468e-06,5.021491818264803,5.021491818264332,-2.0083821376135353,-2.008382137607686,0.005737361048555445,0.0057373610465233735
30,2.0103221785169106e-06,2.0103221785163066e-06,6.9876957629069025,6.987695762907467,-1.4405792960595702,-1.4405792960598418,0.007007675749944154,0.007007675747630972
40,2.7187776357166246e-06,2.7187776357175424e-06,9.003730957150816,9.00373095715197,-1.0534340901081363,-1.0534340901078854,0.008559233086225297,0.008559233087810812
50,3.4841795049345156e-06,3.4841795049324137e-06,11.254554488066074,11.254554488065066,-0.7810818449641816,-0.7810818449664796,0.010454302501272848,0.010454302496868066
60,4.360059794399611e-06,4.360059794401354e-06,13.887602918941802,13.887602918940116,-0.5843904440475503,-0.584390444046928,0.0127689397848822,0.012768939791695737
70,5.394169862659587e-06,5.394169862656703e-06,17.03988894651313,17.039888946510608,-0.4394976706976579,-0.43949767070034634,0.015596039458628561,0.015596039453497799
80,6.635008471828095e-06,6.635008471827479e-06,20.855124419040756,20.855124419043708,-0.33131530464843895,-0.3313153046520646,0.019049062959165843,0.019049062956103584
90,8.136299081812274e-06,8.13629908181105e-06,25.495867447746207,25.495867447758652,-0.24988429838082893,-0.2498842983831211,0.023266592244068116,0.023266592228944748
100,9.960529988990951e-06,9.960529988989338e-06,31.15354782586443,31.153547825864866,-0.18833849485517828,-0.1883384948532088,0.028417891572373778,0.02841789156591428
"{'distance': [0.25, 0.5, 0.75], 'solute_3': [8.0, -10.0, 8.0], 'solute_2': [8.0, -2.0, 8.0], 'solute_1': [15.0, -20.0, 15.0]}","{'solute_3i': '1.0 M', 'solute_1e': '1.0 fM', 'solute_2i': '1.0 fM', 'solute_3e': '1.0 M', 'solute_1i': '1.0 M', 'solute_2e': '1.0 M'}"
voltage,current,solute_3,solute_2,solute_1
-150,-0.011898340760199685,-33560.430971003974,-7150.9284478437985,0.00018806044020149015
-140,-0.00662895694034905,-18528.104767372,-4323.04773345603,0.00023101308907446522
-130,-0.003688206714527957,-10209.103263950363,-2604.3078622233597,0.00028330187649458494
-120,-0.0020505238765550957,-5617.793742194655,-1564.1877199604398,0.0003470091578196069
-110,-0.0011396453296513625,-3088.4418199056518,-937.0081559999754,0.0004245867798892966
-100,-0.0006333474684081222,-1696.7200158475655,-560.0408344648648,0.0005191969696027796
-90,-0.00035200082683704105,-931.5561342243165,-334.1475953674338,0.0006346638352283905
-80,-0.00019565207232935506,-511.06069288660103,-199.17899399923303,0.0007756248096504707
-70,-0.00010873987067350381,-280.00701825079483,-118.7635809842742,0.0009477145180118354
-60,-6.039403753088552e-05,-153.00971724498433,-70.97437633731543,0.0011578141241880401
-50,-3.346492072437293e-05,-83.13298454862313,-42.6314958277063,0.0014143464558963887
-40,-1.842409429394995e-05,-44.586211326599624,-25.83786358621587,0.0017277203631514953
-30,-9.975168669644456e-06,-23.196799740078852,-15.87759176624755,0.0021103871088155165
-20,-5.173001334572792e-06,-11.17463503113373,-9.946780170668061,0.0025777551294606264
-10,-2.3777937450023022e-06,-4.231591734980418,-6.385771263839115,0.0031485747579588176
0,-6.743954457676639e-07,-2.0514542953264936e-08,-4.2174009015345915,0.003845771632450526
10,4.506790019250109e-07,2.8366250559861603,-2.869417476042162,0.004697296033082096
20,1.28897980162195e-06,5.021485536289827,-2.008379596397224,0.005737350616494016
30,2.01032869026621e-06,6.987718386045877,-1.440583953796364,0.007007705291162961
40,2.7187828223925153e-06,9.003748136050492,-1.053436110931034,0.008559252724998937
50,3.484174493698928e-06,11.254538300499465,-0.7810807168151387,0.010454285432848081
60,4.360075087200227e-06,13.887651634388435,-0.584392511977206,0.012768988642074373
70,5.394163220125983e-06,17.039867965300342,-0.4394971315280867,0.015596019084124847
80,6.635015498566686e-06,20.855146511489163,-0.33131566926443945,0.01904908396292849
90,8.136282641334582e-06,25.495815930474816,-0.2498837919096744,0.02326654392753361
100,9.960518555038549e-06,31.15351205626775,-0.1883382621832964,0.02841785833996978
"{'distance': [0.25, 0.5, 0.75], 'solute_3': [8.0, -10.0, 8.0], 'solute_2': [8.0, -2.0, 8.0], 'solute_1': [15.0, -20.0, 15.0]}","{'solute_3i': '1.0 M', 'solute_1e': '1.0 fM', 'solute_2i': '1.0 fM', 'solute_3e': '1.0 M', 'solute_1i': '1.0 M', 'solute_2e': '1.0 M'}"
voltage,largest element,smallest element,element difference,element ratio difference,condition number,transport error solute_3,transport error solute_2,transport error solute_1,current errors,smallest eigenvalue,second smallest eigenvalue,sum absolute errors,sum squared errors
-150,50374429049.281479,0.077442896949789397,50374429049.204033,650471909411.42175,1.1922374551083635e+18,1.728330971673131e-07,1.2705640983767807e-08,2.708880773212856e-08,6.60894949877644e-14,4.8710944997285122,5.5133982193538581e-08,2.7565330036535894e-07,4.2527468312181238e-07
-140,42073838438.320557,0.063481987834872827,42073838438.257072,662768131139.20728,1.237931000460265e+18,1.2863893061876297e-08,9.626364771975204e-08,2.177232339667487e-08,1.8275311819415663e-14,5.9490150698851663,4.4105118335163018e-08,1.4479865901735515e-07,2.3606837451506379e-07
-130,35211832610.413239,0.052068833792147294,35211832610.361168,676255449679.83655,1.2545268327295905e+18,1.9286744645796716e-07,4.452567736734636e-08,1.7958008421503722e-08,6.317429218638537e-14,7.2658365888435572,3.6220617941439234e-08,2.9606547638949696e-07,4.7478673793205362e-07
-120,29536804498.828217,0.042745384875576366,29536804498.785473,690994000517.34717,6.8551986323619494e+17,1.4762917999178171e-08,2.0330617189756595e-08,2.7494379465904748e-08,1.679602637527644e-14,8.8743390681584611,5.52927267394166e-08,7.2830624280247493e-08,1.2517365569064687e-07
-110,24842520767.115459,0.035137458343288512,24842520767.080322,707009611350.00659,1.1089794150237966e+18,6.2222625274444e-08,2.4691530597920064e-08,1.4240579527765619e-08,2.845445233601307e-14,10.839037451422772,2.8590048989860687e-08,1.2213246551909685e-07,2.0230907719909208e-07
