"{'distance': [0.11, 0.223, 0.748], 'solute_3': [14.88, -2.4, 17.58], 'solute_2': [8.71, -19.31, 11.43], 'solute_1': [10.27, -14.93, 6.01]}","{'solute_3i': '67.0 mM', 'solute_1e': '297.0 uM', 'solute_2i': '182.0 mM', 'solute_3e': '232.0 M', 'solute_1i': '393.0 mM', 'solute_2e': '500.0 uM'}"
voltage,current,solute_3,solute_2,solute_1
-150,-0.03466698240259976,-108047.36474496436,-111.0860261073078,-27.080265394094567
-140,-0.021120702525378367,-65828.51593307481,-67.48764505104671,-15.861379414986914
-130,-0.01264826904161187,-39422.59474105045,-40.16227872553101,-9.158744227309398
-120,-0.007431569844892427,-23163.57479854443,-23.268429575049232,-5.21280608187044
-110,-0.004278670337382904,-13336.784027174346,-12.976930839458179,-2.9274374433639423
-100,-0.0024126957368269847,-7521.031268999808,-6.793144961825734,-1.6246246227160555
-90,-0.001332921116451453,-4155.733770301193,-3.11068920841959,-0.8892043790535809
-80,-0.0007221900747236434,-2252.4091367440215,-0.9136511631628323,-0.46910836076085616
-70,-0.0003842453937768648,-1199.3793442003641,0.4251700028867207,-0.20906442778414203
-60,-0.00020093566975150422,-628.418613181188,1.2818082764210592,-0.002158676689305139
-50,-0.00010317501478364348,-324.27667934930395,1.8735127065019448,0.25584646007132505
-40,-5.167195171345398e-05,-164.68893955891542,2.317724007901554,0.7319720122573017
-30,-2.4561316254464705e-05,-81.99677455807881,2.664920087685124,1.7823760254877925
-20,-9.739937918873646e-06,-39.610300986802855,2.909783115742404,4.20080733877262
-10,-2.5844592095591274e-07,-18.161956357606435,2.988691796227391,9.577752901602025
0,8.206909820837233e-06,-7.615636974997673,2.796876341760472,20.288890403092864
10,1.804798836425343e-05,-2.798170094310502,2.290237588319277,37.891656136439906
20,2.9336041387192933e-05,-0.8863701068184134,1.6164594199616065,60.553726115817426
30,4.071192332047546e-05,-0.2511844689833875,1.0213949895203742,84.19714496399376
40,5.1404971017440294e-05,-0.06870846274090982,0.6242530059109749,106.58962660384645
50,6.169447235595888e-05,-0.019659318039071234,0.40102008317805415,128.11544812069985
60,7.22288209123559e-05,-0.006210756954191266,0.28759640576301027,150.10125874006982
70,8.359361816631205e-05,-0.00217052843333593,0.23411850048681962,173.78131925939684
80,9.624247473345858e-05,-0.0007889158361837484,0.21131822418629354,200.11448427603662
90,0.00011054418880248061,-0.00025374691535953243,0.2038127376303997,229.87717124813878
100,0.00012683457808010444,-2.5878508350622134e-05,0.2038935271599599,263.77290654489485
"{'distance': [0.11, 0.223, 0.748], 'solute_3': [14.88, -2.4, 17.58], 'solute_2': [8.71, -19.31, 11.43], 'solute_1': [10.27, -14.93, 6.01]}","{'solute_3i': '67.0 mM', 'solute_1e': '297.0 uM', 'solute_2i': '182.0 mM', 'solute_3e': '232.0 M', 'solute_1i': '393.0 mM', 'solute_2e': '500.0 uM'}"
voltage,largest element,smallest element,element difference,element ratio difference,condition number,transport error solute_3,transport error solute_2,transport error solute_1,current errors,smallest eigenvalue,second smallest eigenvalue,sum absolute errors,sum squared errors
-150,1893163811.42817,149.37612952975678,1893163662.0520403,12673804.15725016,1.1600156375657796e+20,0.0,3.079492216784274e-11,1.2789769243681803e-12,6.938893903907228e-18,-6.2281470763798176e-10,-9569.9675635845997,4.4819873296140616e-11,7.5374373409431428e-11
-140,1761420235.6010528,98.61327400381353,1761420136.9877787,17861897.938130885,3.066217183303644e+20,3.4924596548080444e-10,3.042828211619053e-10,2.4172663870558608e-11,3.469446951953614e-18,-7.7367634306795643e-10,-6798.0763735712508,4.52987503750016e-10,6.630926918660407e-10
-130,1650553006.4274855,65.303805861859473,1650552941.1236796,25274989.484058339,6.9004278768208301e+20,2.9103830456733704e-11,2.9473312679328956e-11,5.38946665074036e-12,5.204170427930421e-18,1.6046686006154825e-13,-4913.2584404130275,3.4105021013955862e-11,5.6758153732516803e-11
-120,1562250001.8643937,43.466203226139214,1562249958.3981905,35941717.608426988,4.894821870141577e+20,2.1827872842550278e-11,1.1475265182525618e-11,8.316902722071973e-12,7.806255641895632e-18,1.9889317319855377e-11,-3618.8444912467558,3.4047713975438694e-11,6.3771210534468992e-11
-110,1499272838.2955844,29.170720969237305,1499272809.1248634,51396495.81773036,3.9674972966895282e+20,3.8198777474462986e-11,2.3442581209565105e-11,1.120570303214663e-11,8.673617379884035e-19,-1.091739895632914e-10,-2716.9194693259251,4.4632659795670358e-11,7.0734529344917974e-11
-100,1465795488.2124767,19.835764705355352,1465795468.3767121,73896595.870424613,9.4728431678661413e+21,2.7284841053187847e-11,2.8990143619012088e-11,2.19868567796766e-12,1.3010426069826053e-18,4.7610407483433398e-11,-2073.7472392330146,3.902176516327372e-11,6.1955773844601936e-11
-90,1467865821.84255,13.765579092969167,1467865808.0769711,106633060.03539431,1.5915902590896888e+21,2.7284841053187847e-12,2.971844992316619e-12,1.884159495091353e-12,8.673617379884035e-19,2.6815048573091761e-12,-1596.2150117953622,5.199022613388403e-12,1.0247802606500045e-11
-80,1514033181.3852532,9.8464912727160385,1514033171.5387619,153763725.51921484,5.7726708003369386e+21,1.3642420526593924e-12,1.1886047701636926e-12,4.875266856885219e-12,2.2768245622195593e-18,2.5500855556243766e-12,-1216.7927325997919,7.031088748596872e-12,1.141842176366481e-11
-70,1616200340.3487637,7.3473328186464251,1616200333.001431,219971026.25419259,9.6637340542933884e+21,5.229594535194337e-12,4.072742143534924e-12,1.6653345369377348e-12,4.336808689942018e-19,3.9902492076302805e-12,-889.02531064610923,6.9107149253063551e-12,1.2030376694838196e-11
-60,1790778824.436336,5.788312250998727,1790778818.6480238,309378407.1734125,3.1064224088187237e+22,1.3642420526593924e-12,6.574740751830177e-13,1.1632361740510078e-12,3.2526065174565133e-19,7.3477271944056693e-13,-596.48246500327127,2.0126836342601197e-12,3.8404834867833415e-12
-50,2060254474.3087862,4.8548632112650605,2060254469.453923,424369211.78916872,1.8703941607572275e+22,2.2168933355715126e-12,1.4168888284871173e-11,1.3836654044752095e-11,2.8189256484623115e-18,1.096525617297091e-12,-357.28191994762784,2.0037733485222085e-11,3.213074251107173e-11
-40,2455307884.9365578,4.3410442331521413,2455307880.5955133,565603056.10009801,8.9081815054775621e+21,1.3642420526593924e-12,4.8756554349438375e-12,2.9268809598193e-12,2.778268066994105e-19,4.6911869721749284e-13,-193.38567858283702,5.896507561977453e-12,9.8783203839047928e-12
-30,3017685439.3756456,4.1123558210787197,3017685435.2632899,733809419.87263906,8.2214999339659512e+21,2.2737367544323206e-13,3.1401548028497928e-12,2.2357671269901402e-12,1.3891340334970526e-19,-2.1459675563459808e-12,-98.788859047742918,3.925665046040207e-12,6.2105875997531257e-12
-20,3804085773.0031447,4.0813161839847591,3804085768.9218287,932073282.61665261,6.5733520307200668e+21,1.4210854715202004e-12,5.220712750997336e-12,5.163869332136528e-12,1.2637731573034161e-18,4.6185587118416875e-12,-49.985935722400725,7.6966754072477081e-12,1.3491430195244902e-11
-10,4891420025.6450062,4.1914206325995078,4891420021.4535856,1167007669.8103576,2.6788290031876807e+21,6.394884621840902e-14,1.695088513997689e-12,8.615330671091215e-13,1.0926725019580474e-19,-4.454413388427789e-12,-26.220985735444419,1.9505668542698034e-12,3.0877522760874854e-12
0,6383930780.2687063,4.4066101252488821,6383930775.8620958,1448716949.9498544,1.282034525006453e+21,1.0400569294688466e-12,5.070610598068015e-12,5.066169705969514e-12,1.1434944787933055e-18,-1.8892244199064407e-12,-14.990594513549237,7.2605808773842951e-12,1.2062351117947401e-11
10,8422825807.1300526,4.7043603365153084,8422825802.4256926,1790429559.9450502,1.0329452441471922e+21,1.6120438317557273e-13,4.1673331452329876e-12,4.440892098500626e-12,8.470329472543003e-19,-3.8707930674643734e-12,-9.8338525308226501,6.0173906529703289e-12,9.0412122233374248e-12
20,11199314407.368868,5.0711504046168452,11199314402.297718,2208436649.240941,5.5865643549975203e+20,4.171107903516713e-13,1.9062529332813938e-12,1.4708234630234074e-12,2.270048298641525e-19,-7.7242286290720237e-12,-7.6028248177256232,2.5261574297980029e-12,4.1229242242479813e-12
30,14972247626.363714,5.4994961429345004,14972247620.864218,2722476248.2285523,1.7894968054073915e+21,2.967071033310731e-13,1.5987211554602254e-13,3.268496584496461e-13,6.776263578034403e-21,-5.105602757432656e-12,-6.7934288206080877,4.1894915678164839e-13,7.815970093361102e-13
40,20091987768.3125,5.9860121670579929,20091987762.326488,3356489630.7565169,3.0386054934020888e+21,9.835188219398106e-14,2.8899105330992825e-13,1.1368683772161603e-13,1.1519648082658485e-19,-1.9655811178840894e-13,-6.6907220941604413,4.2636964333747505e-13,7.347455976969286e-13
50,27032706571.862667,6.5301511504279999,27032706565.332516,4139675475.9789729,3.2100764993442766e+21,9.485467966641181e-15,1.6906476218991884e-12,1.9042545318370685e-12,3.7947076036992655e-19,2.4312548973298173e-11,-6.9555620073531088,2.6240924688939258e-12,3.9520053896069385e-12
60,36436087984.421646,7.1333891705544881,36436087977.288254,5107822819.3162518,1.8007060766704397e+21,2.3424838457852815e-14,3.681777105413175e-12,3.893774191965349e-12,7.047314121155779e-19,6.9721505668450035e-12,-7.427958034724802,5.3408901778456067e-12,7.7368111917053284e-12
70,49170462254.909958,7.7987054551663331,49170462247.111252,6304951833.0425568,1.0982812639279117e+22,1.6072213004925118e-15,6.493972026788697e-13,6.536993168992922e-13,1.0842021724855044e-19,-9.7946056332427622e-12,-8.0337240431594807,8.838826972139723e-13,1.3049006319931777e-12
80,66410819871.976601,8.5302569831990311,66410819863.446342,7785324639.4308634,5.2459381812735561e+21,5.3887450057743536e-14,6.485922909860165e-13,7.673861546209082e-13,1.4907779871675686e-19,1.4331526371731894e-11,-8.7400724522923934,1.0067328408413647e-12,1.5023537969227618e-12
90,89747077715.20578,9.3331826692110536,89747077705.872604,9615913552.3265419,7.0388355229878772e+21,3.242523437252398e-15,6.358247262028272e-13,6.821210263296962e-13,1.3552527156068805e-19,1.4077368750287551e-11,-9.5344292430070858,9.1207065922007736e-13,1.3079815008865125e-12
100,121330572927.60921,10.213494391947977,121330572917.39571,11879437954.483307,2.9898156299489099e+22,5.695086329610133e-14,2.2017943024366105e-12,2.0463630789890885e-12,2.710505431213761e-19,1.6435936839028122e-12,-10.414305401221226,3.0144116409772852e-12,4.5237980028645097e-12
"{'distance': [0.11, 0.223, 0.748], 'solute_3': [14.88, -2.4, 17.58], 'solute_2': [8.71, -19.31, 11.43], 'solute_1': [10.27, -14.93, 6.01]}","{'solute_3i': '67.0 mM', 'solute_1e': '297.0 uM', 'solute_2i': '182.0 mM', 'solute_3e': '232.0 M', 'solute_1i': '393.0 mM', 'solute_2e': '500.0 uM'}"
voltage,"current, barrier 0","current, barrier 1",solute_3 transport over barrier 0,solute_3 transport over barrier 1,solute_2 transport over barrier 0,solute_2 transport over barrier 1,solute_1 transport over barrier 0,solute_1 transport over barrier 1
-150,-0.03466698240259975,-0.03466698240259976,-108047.36474496436,-108047.36474496436,-111.08602610727701,-111.0860261073078,-27.08026539409329,-27.080265394094567
-140,-0.02112070252537837,-0.021120702525378367,-65828.51593307516,-65828.51593307481,-67.48764505074243,-67.48764505104671,-15.861379414962741,-15.861379414986914
-130,-0.012648269041611865,-0.01264826904161187,-39422.59474105042,-39422.59474105045,-40.16227872556048,-40.16227872553101,-9.158744227304009,-9.158744227309398
-120,-0.0074315698448924345,-0.007431569844892427,-23163.57479854445,-23163.57479854443,-23.268429575037757,-23.268429575049232,-5.212806081878757,-5.21280608187044
-110,-0.004278670337382903,-0.004278670337382904,-13336.784027174384,-13336.784027174346,-12.976930839434736,-12.976930839458179,-2.9274374433527366,-2.9274374433639423
-100,-0.002412695736826986,-0.0024126957368269847,-7521.031268999781,-7521.031268999808,-6.793144961854724,-6.793144961825734,-1.6246246227182541,-1.6246246227160555
-90,-0.0013329211164514539,-0.001332921116451453,-4155.733770301195,-4155.733770301193,-3.1106892084225617,-3.11068920841959,-0.8892043790516967,-0.8892043790535809
-80,-0.0007221900747236457,-0.0007221900747236434,-2252.40913674402,-2252.4091367440215,-0.913651163164021,-0.9136511631628323,-0.4691083607657314,-0.46910836076085616
-70,-0.00038424539377686525,-0.0003842453937768648,-1199.379344200359,-1199.3793442003641,0.42517000288264795,0.4251700028867207,-0.20906442778580736,-0.20906442778414203
-60,-0.00020093566975150454,-0.00020093566975150422,-628.4186131811866,-628.418613181188,1.2818082764204017,1.2818082764210592,-0.002158676690468375,-0.002158676689305139
-50,-0.0001031750147836463,-0.00010317501478364348,-324.27667934930616,-324.27667934930395,1.8735127065161137,1.8735127065019448,0.2558464600574884,0.25584646007132505
-40,-5.1671951713453705e-05,-5.167195171345398e-05,-164.68893955891406,-164.68893955891542,2.3177240078966785,2.317724007901554,0.7319720122602286,0.7319720122573017
-30,-2.4561316254464844e-05,-2.4561316254464705e-05,-81.99677455807904,-81.99677455807881,2.664920087688264,2.664920087685124,1.7823760254855567,1.7823760254877925
-20,-9.739937918872382e-06,-9.739937918873646e-06,-39.610300986801434,-39.610300986802855,2.9097831157371834,2.909783115742404,4.200807338777784,4.20080733877262
-10,-2.584459209558035e-07,-2.5844592095591274e-07,-18.1619563576065,-18.161956357606435,2.988691796229086,2.988691796227391,9.577752901601164,9.577752901602025
0,8.206909820838376e-06,8.206909820837233e-06,-7.615636974996633,-7.615636974997673,2.7968763417554015,2.796876341760472,20.28889040309793,20.288890403092864
10,1.804798836425258e-05,1.804798836425343e-05,-2.798170094310663,-2.798170094310502,2.2902375883234445,2.290237588319277,37.891656136435465,37.891656136439906
20,2.9336041387192706e-05,2.9336041387192933e-05,-0.8863701068188305,-0.8863701068184134,1.6164594199635127,1.6164594199616065,60.553726115815955,60.553726115817426
30,4.0711923320475466e-05,4.071192332047546e-05,-0.2511844689836842,-0.2511844689833875,1.0213949895202143,1.0213949895203742,84.19714496399409,84.19714496399376
40,5.140497101744041e-05,5.1404971017440294e-05,-0.06870846274100817,-0.06870846274090982,0.6242530059112639,0.6242530059109749,106.58962660384657,106.58962660384645
50,6.16944723559585e-05,6.169447235595888e-05,-0.01965931803908072,-0.019659318039071234,0.4010200831797448,0.40102008317805415,128.11544812069795,128.11544812069985
60,7.22288209123552e-05,7.22288209123559e-05,-0.006210756954214691,-0.006210756954191266,0.28759640576669204,0.28759640576301027,150.10125874006593,150.10125874006982
70,8.359361816631195e-05,8.359361816631205e-05,-0.0021705284333375374,-0.00217052843333593,0.23411850048746902,0.23411850048681962,173.78131925939618,173.78131925939684
80,9.624247473345873e-05,9.624247473345858e-05,-0.0007889158362376358,-0.0007889158361837484,0.21131822418564494,0.21131822418629354,200.1144842760374,200.11448427603662
90,0.00011054418880248048,0.00011054418880248061,-0.0002537469153562899,-0.00025374691535953243,0.20381273763103552,0.2038127376303997,229.8771712481381,229.87717124813878
100,0.0001268345780801047,0.00012683457808010444,-2.5878508407572998e-05,-2.5878508350622134e-05,0.2038935271577581,0.2038935271599599,263.7729065448969,263.77290654489485
"{'distance': [0.11, 0.223, 0.748], 'solute_3': [14.88, -2.4, 17.58], 'solute_2': [8.71, -19.31, 11.43], 'solute_1': [10.27, -14.93, 6.01]}","{'solute_3i': '67.0 mM', 'solute_1e': '297.0 uM', 'solute_2i': '182.0 mM', 'solute_3e': '232.0 M', 'solute_1i': '393.0 mM', 'solute_2e': '500.0 uM'}"
voltage,current,solute_3,solute_2,solute_1
-150,-0.03466698240260774,-108047.3647449945,-111.086026107298,-27.08026539060711
-140,-0.021120702525442427,-65828.51593327506,-67.48764505095575,-15.861379414838666
-130,-0.01264826904160613,-39422.594741033034,-40.162278725541654,-9.158744226972885
-120,-0.00743156984489368,-23163.57479854918,-23.26842957504565,-5.212806081313374
-110,-0.004278670337386535,-13336.784027186115,-12.976930839445439,-2.9274374430847274
-100,-0.00241269573682326,-7521.0312689885895,-6.793144961842916,-1.6246246224336574
-90,-0.0013329211164511165,-4155.733770300087,-3.1106892084218902,-0.8892043790895059
-80,-0.0007221900747236033,-2252.4091367438614,-0.9136511631632844,-0.4691083607838209
-70,-0.00038424539377640175,-1199.3793441992125,0.4251700028807761,-0.20906442758450794
-60,-0.0002009356697515055,-628.4186131812859,1.2818082764215037,-0.002158676627004752
-50,-0.00010317501478394901,-324.2766793502549,1.8735127065139259,0.255846460061548
-40,-5.16719517133948e-05,-164.68893955872292,2.317724007897178,0.731972012255028
-30,-2.4561316254487754e-05,-81.99677455813247,2.6649200876876447,1.7823760254739227
-20,-9.739937918860388e-06,-39.61030098675486,2.9097831157381764,4.200807338771028
-10,-2.584459209598667e-07,-18.161956357609064,2.988691796227909,9.577752901595204
0,8.20690982082905e-06,-7.615636974983789,2.7968763417551568,20.288890403070127
10,1.8047988364250928e-05,-2.7981700943105547,2.2902375883193686,37.891656136434676
20,2.9336041387265954e-05,-0.8863701068210132,1.6164594199658169,60.55372611596829
30,4.0711923320430716e-05,-0.25118446898302094,1.0213949895193464,84.19714496390111
40,5.1404971017419735e-05,-0.06870846274090472,0.6242530059105746,106.58962660380394
50,6.169447235595075e-05,-0.01965931803920845,0.4010200831778707,128.11544812068317
60,7.222882091252824e-05,-0.006210756954249977,0.2875964057637554,150.1012587404279
70,8.359361816633206e-05,-0.002170528433302412,0.23411850048683897,173.78131925943842
80,9.624247473336101e-05,-0.0007889158362229139,0.21131822418606647,200.1144842758338
90,0.00011054418880254473,-0.0002537469153780838,0.20381273763053015,229.87717124827213
100,0.0001268345780800546,-2.587850835001959e-05,0.20389352715987713,263.7729065447912
"{'distance': [0.11, 0.223, 0.748], 'solute_3': [14.88, -2.4, 17.58], 'solute_2': [8.71, -19.31, 11.43], 'solute_1': [10.27, -14.93, 6.01]}","{'solute_3i': '67.0 mM', 'solute_1e': '297.0 uM', 'solute_2i': '182.0 mM', 'solute_3e': '232.0 M', 'solute_1i': '393.0 mM', 'solute_2e': '500.0 uM'}"
voltage,largest element,smallest element,element difference,element ratio difference,condition number,transport error solute_3,transport error solute_2,transport error solute_1,current errors,smallest eigenvalue,second smallest eigenvalue,sum absolute errors,sum squared errors
-150,1893163811.42817,149.37612952975678,1893163662.0520403,12673804.15725016,1.1600156375657796e+20,1.8189894035458565e-09,8.398615136684384e-12,3.4932767789541685e-09,1.1032841307212493e-15,10973.508155520078,2.2691931271863886e-11,4.2855659182772993e-09,7.0087935455376282e-09
-140,1761420235.6010528,98.61327400381353,1761420136.9877787,17861897.938130885,3.066217183303644e+20,5.820766091346741e-11,4.902744876744691e-12,1.7223023007773008e-10,6.245004513516506e-17,7820.8269799279569,7.9288164026468799e-12,2.1566737007117965e-10,3.5142022625223035e-10
-130,1650553006.4274855,65.303805861859473,1650552941.1236796,25274989.484058339,6.9004278768208301e+20,1.8189894035458565e-10,3.623767952376511e-13,3.270415049883013e-10,9.8879238130678e-17,5688.5465189901388,3.2682094064307423e-12,4.0145759871090978e-10,6.5473670929350192e-10
-120,1562250001.8643937,43.466203226139214,1562249958.3981905,35941717.608426988,4.894821870141577e+20,3.310560714453459e-10,3.2009950245992513e-12,5.663753910312153e-10,1.6566609195578508e-16,4238.2618010597134,4.3020345773730768e-12,6.9595700832338396e-10,1.1332517146911414e-09
-110,1499272838.2955844,29.170720969237305,1499272809.1248634,51396495.81773036,3.9674972966895282e+20,1.546140993013978e-10,1.8989254613188677e-12,2.7055246931695365e-10,8.153200337090993e-17,3247.3965598582081,5.0055042853167695e-12,3.3313167979260659e-10,5.4350479672393703e-10
