"{'distance': [0.352, 0.732, 0.846], 'solute_3': [10.78, -9.69, 15.77], 'solute_2': [10.14, -8.9, 8.52], 'solute_1': [17.69, -4.86, 18.74]}","{'solute_3i': '462.0 M', 'solute_1e': '42.0 uM', 'solute_2i': '223.0 M', 'solute_3e': '356.0 mM', 'solute_1i': '399.0 M', 'solute_2e': '190.0 M'}"
voltage,current,solute_3,solute_2,solute_1
-150,-0.029068378020133907,46.91937010912197,-181497.9076553118,0.4388461645467996
-140,-0.027545224116986747,64.10507189479354,-172007.43311240606,0.605712254408818
-130,-0.025764530095662923,81.60929763607938,-160909.71035292046,0.822056140050774
-120,-0.023766169777212416,99.19789974796683,-148453.41338082543,1.095773134781135
-110,-0.021600797046729167,116.59352109726802,-134954.4627146601,1.433196501847645
-100,-0.019325366653276572,133.493566307724,-120768.08215216984,1.8379411893581459
-90,-0.01699817144256733,149.5950174208682,-106257.84395544638,2.3098458449308508
-80,-0.014673951730029267,164.62294286059065,-91765.1684068432,2.8442777824265946
-70,-0.012399634303326032,178.35830664111933,-77582.7535475097,3.4320490706166815
-60,-0.010211166012497363,190.66056754298307,-63934.833093365654,4.060088261100021
-50,-0.008131717269116037,201.4816862537861,-50965.977728892,4.712839666702633
-40,-0.006171283465715329,210.87015544461,-38738.613029945176,5.37417465456667
-30,-0.004327475548167681,218.965837162516,-27237.951284051407,6.029465817223818
-20,-0.0025871289305819103,225.98805601886295,-16382.02460615657,6.667445381713838
-10,-0.0009283040071117516,232.22017967011044,-6034.158453932003,7.2815507178743015
0,0.0006777074637616867,237.9938267928626,3984.5192275841546,7.870614547369074
10,0.00226465434654482,243.67515387801186,13884.305063285166,8.438924814476607
20,0.0038700414207135984,249.654744518565,23898.91137698476,8.99580554785311
30,0.0055343482513372025,256.341751186747,34280.596773752215,9.554929101006616
40,0.007300738182974855,264.1622845736345,45298.351983743196,10.133565483768606
50,0.00921520345790137,273.56165517593496,57238.804131055,10.751928509200301
60,0.011327079040023108,285.0099144438043,70409.41904090403,11.432717705290072
70,0.013689862496146912,299.010153304277,85143.61102044937,12.200899572902117
80,0.01636229196349877,316.1091264712854,101807.46109587123,13.083732081782701
90,0.019409652725080426,336.9099273317048,120807.85998913112,14.11101412661604
100,0.022905301517100247,362.0866042814535,142602.00808087763,15.315533943600133
"{'distance': [0.352, 0.732, 0.846], 'solute_3': [10.78, -9.69, 15.77], 'solute_2': [10.14, -8.9, 8.52], 'solute_1': [17.69, -4.86, 18.74]}","{'solute_3i': '462.0 M', 'solute_1e': '42.0 uM', 'solute_2i': '223.0 M', 'solute_3e': '356.0 mM', 'solute_1i': '399.0 M', 'solute_2e': '190.0 M'}"
voltage,largest element,smallest element,element difference,element ratio difference,condition number,transport error solute_3,transport error solute_2,transport error solute_1,current errors,smallest eigenvalue,second smallest eigenvalue,sum absolute errors,sum squared errors
-150,486290324120.12,781.2429524777051,486290323338.87701,622457229.95369697,1.1720057302640224e+22,2.738431703619426e-11,8.731149137020111e-11,6.6185390501516395e-12,1.0408340855860843e-17,-9.936229616869241e-11,-782.48641025700704,1.0148333229347628e-10,1.6469980934630257e-10
-140,443439771359.46112,767.37851764893298,443439770592.08258,577863155.09333789,1.469905450745111e+23,7.602807272633072e-12,2.9103830456733704e-11,1.1056378035334546e-11,3.469446951953614e-18,-4.1382008930668235e-11,-769.68271748673305,3.5451125814774132e-11,6.2897687058693919e-11
-130,407552456373.73163,757.57293575880976,407552455616.15869,537971246.24774742,1.4580465344946742e+22,5.6985527407960035e-12,1.4551915228366852e-10,1.8168799797990687e-12,2.42861286636753e-17,-2.5693225325085223e-11,-760.84929888426939,1.35202367520068e-10,1.978701646976333e-10
-120,377798694161.04169,752.21012750649129,377798693408.83154,502251538.95947969,1.4133545283944452e+22,9.180212146020494e-12,5.820766091346741e-11,3.469224907348689e-12,6.938893903907228e-18,-6.24140739091672e-11,-756.39915179417335,7.9655922570032388e-11,1.2431833340542653e-10
-110,353463158856.08606,751.74962552860711,353463158104.33643,470187342.77059555,1.8091809320588703e+22,6.110667527536862e-12,5.820766091346741e-11,4.026334821105593e-12,1.3877787807814457e-17,2.2140511646284722e-11,-756.80201677830314,5.0799809640573489e-11,8.0252249290424515e-11
-100,333930206662.9859,756.73842577644507,333930205906.2475,441275605.00229603,6.2299549515936097e+21,2.4158453015843406e-12,4.3655745685100555e-11,1.5629719740672954e-11,3.469446951953614e-18,-1.6754597709223162e-11,-762.6048758037748,7.8293526275146342e-11,1.1811884803591965e-10
-90,318671148192.07147,767.82480942941697,318671147424.24664,415031064.74103272,1.3709214930204753e+22,1.7820411812863313e-11,2.9103830456733704e-11,4.706457445990964e-12,6.938893903907228e-18,1.624016476853285e-10,-774.4507613763567,3.8079224934793906e-11,6.7858607621928968e-11
-80,307233215554.5025,785.77445771359976,307233214768.72803,390994149.19705027,6.7689295287603429e+21,8.327560863108374e-12,7.275957614183426e-11,7.284395309170577e-12,1.0408340855860843e-17,-6.3209881773218513e-11,-793.09824791259518,1.7009364253531086e-10,2.5552004956352903e-10
-70,299230003100.9292,811.48923496398208,299230002289.43994,368741802.36563522,1.6075956653292161e+22,9.663381206337363e-13,2.9103830456733704e-11,2.26840768391412e-12,5.204170427930421e-18,1.8772539078781847e-11,-819.44271181810745,3.5246105934517923e-11,5.2120086024842749e-11
-60,294333189824.24597,846.0290769322097,294333188978.21692,347899614.62261915,6.7928441806922952e+21,9.521272659185342e-12,0.0,3.319122754419368e-12,1.734723475976807e-18,1.1302159208526064e-10,-854.53999546411103,6.7158503701491345e-11,7.9262818530878576e-11
-50,292265376759.92682,890.63749312530217,292265375869.28931,328153012.8878243,1.6086090996064845e+22,7.133849067031406e-12,7.275957614183426e-12,5.575984118877386e-12,0.0,9.4202090572537145e-11,-899.63301583209136,3.6330972814373967e-11,6.1568528053612681e-11
-40,292793894712.59271,946.77127552650495,292793893765.82141,309255151.98987037,2.1704497372444842e+22,4.547473508864641e-13,1.8189894035458565e-10,4.603428749305749e-12,2.862293735361732e-17,1.7200935120698091e-11,-956.18193910309469,2.4852930795272514e-10,3.5646330331928766e-10
-30,295725456750.55853,1016.1351033313604,295725455734.4234,291029663.06452149,6.2282014170898657e+22,3.126388037344441e-13,1.5643308870494366e-10,1.7248424910576432e-12,2.5153490401663703e-17,3.6475725218032551e-11,-1025.8987015971502,2.4970855675307363e-10,3.5517722096756188e-10
-20,300901546520.09015,1100.7218465819701,300901545419.36829,273367470.13286632,1.8296761952588955e+22,2.0463630789890885e-12,3.637978807091713e-12,6.59561294469313e-12,1.3010426069826053e-18,-3.2448210784963294e-11,-1110.7868341405219,9.5494412608457943e-12,1.5237588968375348e-11
-10,308194447867.17352,1202.8595034216921,308194446664.31403,256218159.30328843,9.8026781674854706e+22,2.2737367544323206e-13,4.3655745685100555e-11,1.404210081545898e-12,6.7220534694101275e-18,-2.3816559835410089e-11,-1213.1877089041734,8.843556307324299e-11,1.2634515655918221e-10
0,317503833802.76208,1325.2658591728491,317503832477.49622,239577464.10288483,1.5678559045803347e+22,9.094947017729282e-13,1.5643308870494366e-10,2.8208546609675977e-12,2.5370330836160804e-17,-3.0825508812171165e-11,-1335.8344700886612,2.0385645108030934e-10,2.9192648298703716e-10
10,328753843756.17975,1471.1121341141272,328753842285.06763,223473001.22988138,9.8426000385712849e+22,2.8705926524708048e-12,1.673470251262188e-10,6.732392421326949e-13,2.7321894746634712e-17,6.7613803444999121e-11,-1481.915047238715,2.1513345638904733e-10,3.0751401425277436e-10
20,341890587546.49341,1644.09709483809,341890585902.3963,207950362.91951033,2.0763243638798665e+22,1.1368683772161603e-13,3.637978807091713e-11,3.2436275887448573e-12,5.204170427930421e-18,2.9765467868259066e-11,-1655.1458051473282,6.4297247429102419e-11,8.9702467676033848e-11
30,356880022750.76959,1848.5333462174476,356880020902.23627,193061176.57062212,1.9342593737711761e+22,4.433786671143025e-12,2.6193447411060333e-10,4.845901457883883e-12,4.163336342344337e-17,5.1725290717286043e-11,-1859.857578160975,3.1531802530966152e-10,4.546478749034577e-10
40,373706159324.15796,2089.447802906644,373706157234.71014,178854029.66482005,2.0776315661557036e+22,9.663381206337363e-13,1.4551915228366852e-11,8.490985692333197e-12,2.6020852139652106e-18,-1.0751864676361578e-10,-2101.0960837779862,6.1680240629721198e-11,8.6139095856196946e-11
50,392369551571.28076,2372.698667478342,392369549198.58209,165368471.33154228,7.5693450674471824e+22,4.263256414560601e-12,9.458744898438454e-11,7.487344078072056e-12,1.3877787807814457e-17,4.9315381639436495e-11,-2384.7390191898203,1.3517197196042658e-10,2.0189006022519607e-10
60,412886043004.50067,2705.1116243390684,412886040299.38904,152631795.03928229,2.3839858142465753e+22,4.547473508864641e-12,1.4551915228366852e-11,3.277378368693462e-12,3.469446951953614e-18,6.6524500584285641e-12,-2717.6325198950217,6.2592949844497611e-12,1.0610179401737696e-11
70,435285734359.20325,3094.6384033282875,435285731264.56482,140658027.73307955,3.4202943448996777e+22,5.8548721426632255e-12,1.0186340659856796e-10,4.522604513113038e-12,1.3877787807814457e-17,6.0209878749439838e-11,-3107.7501063285899,1.2612901648062028e-10,1.8841106452782697e-10
80,459612149162.18982,3550.5413846759338,459612145611.64844,129448469.78713351,3.3311372898002226e+22,6.423306331271306e-12,1.1641532182693481e-10,1.9539925233402755e-12,2.0816681711721685e-17,-4.3738512811586361e-11,-3564.3777688711248,1.7261270135583623e-10,2.5200819209203473e-10
90,485921574847.41687,4083.6085197604257,485921570763.80835,118993182.74414918,2.4647464408314932e+22,6.0822458181064576e-12,1.4551915228366852e-10,4.559908006740443e-12,2.42861286636753e-17,-6.7345407028795989e-11,-4098.3294526795598,1.9737577257297416e-10,2.89347212856228e-10
100,514282560553.83362,4706.4035438254759,514282555847.43005,109272941.8046912,2.1022557152915707e+23,7.389644451905042e-12,1.1641532182693481e-10,1.0267342531733448e-12,2.0816681711721685e-17,-4.380201756859492e-11,-4722.1979137085445,8.0484404942966006e-11,1.2170531249466876e-10
"{'distance': [0.352, 0.732, 0.846], 'solute_3': [10.78, -9.69, 15.77], 'solute_2': [10.14, -8.9, 8.52], 'solute_1': [17.69, -4.86, 18.74]}","{'solute_3i': '462.0 M', 'solute_1e': '42.0 uM', 'solute_2i': '223.0 M', 'solute_3e': '356.0 mM', 'solute_1i': '399.0 M', 'solute_2e': '190.0 M'}"
voltage,"current, barrier 0","current, barrier 1",solute_3 transport over barrier 0,solute_3 transport over barrier 1,solute_2 transport over barrier 0,solute_2 transport over barrier 1,solute_1 transport over barrier 0,solute_1 transport over barrier 1
-150,-0.029068378020133918,-0.029068378020133907,46.919370109149355,46.91937010912197,-181497.9076553119,-181497.9076553118,0.43884616454018105,0.4388461645467996
-140,-0.027545224116986743,-0.027545224116986747,64.10507189480114,64.10507189479354,-172007.43311240603,-172007.43311240606,0.6057122543977617,0.605712254408818
-130,-0.0257645300956629,-0.025764530095662923,81.60929763608507,81.60929763607938,-160909.71035292032,-160909.71035292046,0.8220561400489571,0.822056140050774
-120,-0.023766169777212423,-0.023766169777212416,99.19789974797601,99.19789974796683,-148453.41338082548,-148453.41338082543,1.0957731347846043,1.095773134781135
-110,-0.02160079704672918,-0.021600797046729167,116.59352109726191,116.59352109726802,-134954.46271466016,-134954.4627146601,1.4331965018436186,1.433196501847645
-100,-0.01932536665327657,-0.019325366653276572,133.4935663077264,133.493566307724,-120768.0821521698,-120768.08215216984,1.8379411893425162,1.8379411893581459
-90,-0.016998171442567336,-0.01699817144256733,149.59501742085038,149.5950174208682,-106257.84395544641,-106257.84395544638,2.3098458449355572,2.3098458449308508
-80,-0.014673951730029257,-0.014673951730029267,164.62294286059898,164.62294286059065,-91765.16840684312,-91765.1684068432,2.84427778241931,2.8442777824265946
-70,-0.012399634303326038,-0.012399634303326032,178.35830664111836,178.35830664111933,-77582.75354750972,-77582.7535475097,3.432049070614413,3.4320490706166815
-60,-0.010211166012497365,-0.010211166012497363,190.66056754297355,190.66056754298307,-63934.833093365654,-63934.833093365654,4.06008826110334,4.060088261100021
-50,-0.008131717269116037,-0.008131717269116037,201.48168625377897,201.4816862537861,-50965.97772889201,-50965.977728892,4.712839666708209,4.712839666702633
-40,-0.0061712834657153,-0.006171283465715329,210.87015544460954,210.87015544461,-38738.613029944994,-38738.613029945176,5.374174654562067,5.37417465456667
-30,-0.0043274755481677064,-0.004327475548167681,218.9658371625157,218.965837162516,-27237.951284051564,-27237.951284051407,6.029465817222093,6.029465817223818
-20,-0.0025871289305819116,-0.0025871289305819103,225.988056018865,225.98805601886295,-16382.024606156574,-16382.02460615657,6.6674453817072425,6.667445381713838
-10,-0.0009283040071117449,-0.0009283040071117516,232.22017967011067,232.22017967011044,-6034.158453931959,-6034.158453932003,7.281550717872897,7.2815507178743015
0,0.0006777074637616613,0.0006777074637616867,237.9938267928635,237.9938267928626,3984.519227583998,3984.5192275841546,7.870614547366253,7.870614547369074
10,0.002264654346544847,0.00226465434654482,243.67515387801473,243.67515387801186,13884.305063285334,13884.305063285166,8.438924814475934,8.438924814476607
20,0.003870041420713593,0.0038700414207135984,249.6547445185651,249.654744518565,23898.911376984724,23898.91137698476,8.995805547856353,8.99580554785311
30,0.005534348251337161,0.0055343482513372025,256.34175118674256,256.341751186747,34280.59677375195,34280.596773752215,9.554929101011462,9.554929101006616
40,0.0073007381829748525,0.007300738182974855,264.16228457363354,264.1622845736345,45298.35198374318,45298.351983743196,10.133565483760115,10.133565483768606
50,0.009215203457901356,0.00921520345790137,273.5616551759307,273.56165517593496,57238.80413105491,57238.804131055,10.751928509207788,10.751928509200301
60,0.011327079040023112,0.011327079040023108,285.00991444379974,285.0099144438043,70409.41904090405,70409.41904090403,11.432717705286795,11.432717705290072
70,0.013689862496146898,0.013689862496146912,299.01015330427117,299.010153304277,85143.61102044927,85143.61102044937,12.20089957290664,12.200899572902117
80,0.01636229196349875,0.01636229196349877,316.10912647127896,316.1091264712854,101807.46109587111,101807.46109587123,13.083732081780747,13.083732081782701
90,0.0194096527250804,0.019409652725080426,336.9099273316987,336.9099273317048,120807.85998913097,120807.85998913112,14.11101412661148,14.11101412661604
100,0.022905301517100227,0.022905301517100247,362.0866042814461,362.0866042814535,142602.0080808775,142602.00808087763,15.315533943599107,15.315533943600133
"{'distance': [0.352, 0.732, 0.846], 'solute_3': [10.78, -9.69, 15.77], 'solute_2': [10.14, -8.9, 8.52], 'solute_1': [17.69, -4.86, 18.74]}","{'solute_3i': '462.0 M', 'solute_1e': '42.0 uM', 'solute_2i': '223.0 M', 'solute_3e': '356.0 mM', 'solute_1i': '399.0 M', 'solute_2e': '190.0 M'}"
voltage,current,solute_3,solute_2,solute_1
-150,-0.029068378020132978,46.919370109121,-181497.907655306,0.4388461645212809
-140,-0.02754522411698646,64.10507189479343,-172007.43311240425,0.605712254398127
-130,-0.02576453009566385,81.60929763608415,-160909.71035292628,0.8220561400622355
-120,-0.023766169777213443,99.19789974797281,-148453.41338083186,1.0957731347961088
-110,-0.021600797046729462,116.59352109726986,-134954.46271466196,1.4331965018533088
-100,-0.019325366653277363,133.49356630773124,-120768.08215217477,1.8379411893702287
-90,-0.016998171442567725,149.59501742087141,-106257.84395544887,2.3098458449437347
-80,-0.014673951730029864,164.62294286059878,-91765.16840684693,2.8442777824398506
-70,-0.012399634303326232,178.35830664112234,-77582.75354751095,3.4320490706222344
-60,-0.010211166012497783,190.66056754299174,-63934.8330933683,4.0600882611168885
-50,-0.008131717269116207,201.4816862537902,-50965.97772889308,4.712839666711085
-40,-0.0061712834657151995,210.87015544460667,-38738.61302994436,5.374174654560757
-30,-0.004327475548167694,218.96583716251635,-27237.951284051494,6.029465817224397
-20,-0.002587128930581919,225.98805601886446,-16382.024606156629,6.667445381715311
-10,-0.0009283040071117422,232.2201796701108,-6034.158453931945,7.281550717874552
0,0.0006777074637616735,237.9938267928649,3984.5192275840673,7.870614547371964
10,0.002264654346544876,243.67515387801276,13884.305063285516,8.438924814477055
20,0.003870041420713584,249.65474451856355,23898.911376984674,8.995805547851528
30,0.005534348251337128,256.3417511867451,34280.59677375175,9.554929101005298
40,0.007300738182974879,264.16228457363525,45298.35198374334,10.133565483769223
50,0.00921520345790136,273.561655175935,57238.804131054945,10.751928509200727
60,0.011327079040023164,285.0099144438055,70409.41904090437,11.432717705290969
70,0.013689862496146954,299.0101533042783,85143.61102044964,12.200899572903253
80,0.016362291963498702,316.1091264712841,101807.46109587079,13.08373208178187
90,0.019409652725080457,336.9099273317055,120807.8599891313,14.111014126616563
100,0.022905301517100216,362.08660428145305,142602.00808087742,15.315533943600004
"{'distance': [0.352, 0.732, 0.846], 'solute_3': [10.78, -9.69, 15.77], 'solute_2': [10.14, -8.9, 8.52], 'solute_1': [17.69, -4.86, 18.74]}","{'solute_3i': '462.0 M', 'solute_1e': '42.0 uM', 'solute_2i': '223.0 M', 'solute_3e': '356.0 mM', 'solute_1i': '399.0 M', 'solute_2e': '190.0 M'}"
voltage,largest element,smallest element,element difference,element ratio difference,condition number,transport error solute_3,transport error solute_2,transport error solute_1,current errors,smallest eigenvalue,second smallest eigenvalue,sum absolute errors,sum squared errors
-150,486290324120.12,781.2429524777051,486290323338.87701,622457229.95369697,1.1720057302640224e+22,2.2588153569813585e-11,0.0,2.2647439479328568e-11,6.938893903907228e-18,844.13262380405479,5.8646263363247313e-11,9.8858353803109574e-11,1.6322143636671171e-10
-140,443439771359.46112,767.37851764893298,443439770592.08258,577863155.09333789,1.469905450745111e+23,1.7195134205394424e-12,5.820766091346741e-11,1.5483170301422433e-12,6.938893903907228e-18,847.83572022025305,4.2639815460342161e-12,3.4410590326258599e-11,3.75868225432896e-11
-130,407552456373.73163,757.57293575880976,407552455616.15869,537971246.24774742,1.4580465344946742e+22,1.5873524716880638e-11,0.0,1.5751067117264483e-11,6.938893903907228e-18,848.79299088069888,3.9507302648934139e-11,6.5492144626368646e-11,1.1500045360435251e-10
-120,377798694161.04169,752.21012750649129,377798693408.83154,502251538.95947969,1.4133545283944452e+22,1.553246420371579e-11,8.731149137020111e-11,1.5439649558857127e-11,1.734723475976807e-17,850.38127031691852,3.7780643791756584e-11,1.3941670541817232e-10,2.1399504390728907e-10
-110,353463158856.08606,751.74962552860711,353463158104.33643,470187342.77059555,1.8091809320588703e+22,1.1354472917446401e-11,5.820766091346741e-11,1.1506573471820047e-11,0.0,854.91066304543949,2.7613190863647515e-11,3.6759484224626062e-11,6.7553962423971825e-11
-100,333930206662.9859,756.73842577644507,333930205906.2475,441275605.00229603,6.2299549515936097e+21,3.2514435588382185e-11,1.1641532182693481e-10,3.239075674343894e-11,2.7755575615628914e-17,864.0477900225668,7.5756415275262428e-11,1.986147944693363e-10,3.3752645123286129e-10
-90,318671148192.07147,767.82480942941697,318671147424.24664,415031064.74103272,1.3709214930204753e+22,1.41824330057716e-11,7.275957614183426e-11,1.4318768393195569e-11,6.938893903907228e-18,879.1509888236809,3.2852831485270186e-11,1.289991196942765e-10,2.000266619006652e-10
