"{'distance': [0.357, 0.441, 0.473], 'solute_3': [17.27, -2.51, 13.06], 'solute_2': [17.1, -12.11, 17.59], 'solute_1': [8.0, -10.0, 8.0]}","{'solute_3i': '267.0 uM', 'solute_1e': '317.0 mM', 'solute_2i': '75.0 nM', 'solute_3e': '265.0 mM', 'solute_1i': '498.0 nM', 'solute_2e': '215.0 uM'}"
voltage,current,solute_3,solute_2,solute_1
-150,-0.07875485590185399,-1.6968749031755113,-0.011601601789193826,-163866.6388834898
-140,-0.07579347744362099,-1.9140794448598275,-0.011071002306450552,-157704.6584516087
-130,-0.07294393203430191,-2.163598786068663,-0.010555757216261091,-151775.35111143143
-120,-0.0702019815016055,-2.451306090788838,-0.010055692639363885,-146069.8944452104
-110,-0.06756353869528713,-2.78435725722328,-0.009570766480815831,-140579.77941637856
-100,-0.06502466101390769,-3.171506204476985,-0.009101063098167772,-135296.7966902806
-90,-0.06258154411738864,-3.6235021582557194,-0.00864678140086431,-130213.0232868373
-80,-0.060230515610871165,-4.153590544874821,-0.008208215797541272,-125320.80910443627
-70,-0.057968028306770704,-4.778144523759953,-0.0077857300380576415,-120612.76247907497
-60,-0.05579065240105139,-5.517460501371575,-0.007379724623802523,-116081.73337497108
-50,-0.05369506546949228,-6.39675754090931,-0.0069905989992756,-111720.79190323407
-40,-0.051678038494042886,-7.4474252095667595,-0.006618709465917172,-107523.19841459421
-30,-0.049736414909151,-8.708560573231527,-0.006264321377575026,-103482.35887580208
-20,-0.04786707733832902,-10.228804536821409,-0.005927545334260645,-99591.7544331609
-10,-0.04606689181580174,-12.068380583311445,-0.005608218889319157,-95844.8239936597
0,-0.04433260799976571,-14.300919039200735,-0.005305607350833739,-92234.75537958938
10,-0.042660665500689865,-17.013746235261248,-0.005017522358518017,-88754.08215766717
20,-0.041046780356769286,-20.30281696300084,-0.004737595031590124,-85393.82658619677
30,-0.03948497241665833,-24.251596898385966,-0.00444673250941689,-82141.48994571879
40,-0.03796507929259586,-28.86436603388563,-0.004086278083908325,-78975.92423190463
50,-0.0364660005117013,-33.87293281974077,-0.0034737314001534137,-75853.40398366738
60,-0.03493662170338091,-38.196382014898006,-0.002039016846885904,-72668.29505333301
70,-0.03324109326208491,-38.467512463941944,0.0019924695050095075,-69140.17733806139
80,-0.03100395320726026,-25.16564277017801,0.014061267242128816,-64494.16748473103
90,-0.02720283337075925,26.564914720960132,0.05014071419606976,-56619.57733471304
100,-0.019332440103659986,172.64753264984483,0.1519769995894395,-40340.885171175614
"{'distance': [0.357, 0.441, 0.473], 'solute_3': [17.27, -2.51, 13.06], 'solute_2': [17.1, -12.11, 17.59], 'solute_1': [8.0, -10.0, 8.0]}","{'solute_3i': '267.0 uM', 'solute_1e': '317.0 mM', 'solute_2i': '75.0 nM', 'solute_3e': '265.0 mM', 'solute_1i': '498.0 nM', 'solute_2e': '215.0 uM'}"
voltage,largest element,smallest element,element difference,element ratio difference,condition number,transport error solute_3,transport error solute_2,transport error solute_1,current errors,smallest eigenvalue,second smallest eigenvalue,sum absolute errors,sum squared errors
-150,400694731024.72076,1.6479743563141505,400694731023.07281,243143790126.02609,9.7176924676652471e+22,2.433697687820313e-11,7.192527823329797e-13,2.9103830456733704e-11,1.3877787807814457e-17,9.5454755211221709e-11,-1.6620419148059828,9.0973295252871213e-11,1.4880168971997954e-10
-140,261073320048.39963,1.6257459981247748,261073320046.7739,160586783144.19104,5.1197247211087436e+21,1.9917401061775308e-13,4.393256591850303e-13,2.9103830456733704e-11,1.3877787807814457e-17,4.3181236364375764e-11,-1.6395065475572674,3.6140137972886131e-11,5.1162973163654257e-11
-130,170102794013.21854,1.6085817861260403,170102794011.60995,105747059602.65681,2.1203849131869812e+21,1.8118839761882555e-13,2.1855781073831793e-13,2.9103830456733704e-11,1.3877787807814457e-17,2.1083135237631723e-11,-1.6220705352757645,4.5993005484788401e-11,6.5115534492177218e-11
-120,110830811052.49132,1.5967392140069729,110830811050.89458,69410715338.019699,4.5156987857557447e+21,5.662137425588298e-13,1.0596037935961533e-13,1.1641532182693481e-10,5.551115123125783e-17,-9.7213348482227957e-12,-1.6099925520461191,1.5366548641821217e-10,2.1738903906165508e-10
-110,72212054556.533752,1.5905136166528187,72212054554.943237,45401720425.695908,8.3206596194033635e+21,5.142553050063725e-13,4.603262215852055e-13,5.820766091346741e-11,2.7755575615628914e-17,-2.8148150477136369e-11,-1.60356933417076,1.1120062227567612e-10,1.5392867536156984e-10
-100,47049936019.241745,1.5902417866238365,47049936017.651505,29586655573.383675,3.5687655084720291e+21,1.1324274851176597e-13,4.093947403305265e-14,0.0,0.0,7.1962436010153397e-12,-1.6031393162691854,5.6217609811985334e-11,7.735642855444258e-11
-90,30655509649.305225,1.5963059891289273,30655509647.70892,19204030967.792919,8.8251780196480818e+20,4.587441537751147e-13,3.60513702224452e-13,4.3655745685100555e-11,2.7755575615628914e-17,-5.4588111808584472e-11,-1.6090866679893276,4.7343527705281082e-11,6.7259446276390911e-11
-80,19973686926.396591,1.609138417193519,19973686924.787453,12412659292.06543,6.4466234731862216e+20,8.79296635503124e-14,3.478640986376291e-14,4.3655745685100555e-11,2.0816681711721685e-17,-2.9830360404048406e-11,-1.6218457731691396,2.920422812609406e-11,3.164505636699122e-11
-70,13013920849.159113,1.6292261331648001,13013920847.529886,7987792844.8639259,4.8028561387287137e+20,7.860379014346108e-13,8.923695116180852e-13,0.0,0.0,-4.376188300625472e-11,-1.6419061978003819,2.3148961456926221e-11,2.4796803499427256e-11
-60,8479267686.5540724,1.6571165476115164,8479267684.8969555,5116880703.8802786,2.4590686852973606e+20,7.123190925995004e-13,2.4704630702254704e-13,1.4551915228366852e-11,6.938893903907228e-18,-4.0901378975167059e-11,-1.6698181980647382,6.0653382742247632e-12,6.9776615041483581e-12
-50,5524701776.4788694,1.6934234921100968,5524701774.7854462,3262445455.7405448,1.4865797258956253e+21,1.8838264281839656e-12,1.4281804905369455e-13,4.3655745685100555e-11,2.0816681711721685e-17,-1.6006751479835657e-11,-1.7061988255306888,8.6421466712110022e-11,1.2408545024822359e-10
-40,3599645272.2597179,1.7388339484190354,3599645270.520884,2070148949.8364983,6.9893331006943764e+19,1.34736666268509e-12,8.66654838171943e-13,1.0186340659856796e-10,4.85722573273506e-17,-1.0826761709381572e-10,-1.7517386936263939,2.0515243128974635e-10,2.9233395044958588e-10
-30,2345368223.8320827,1.7941155031903113,2345368222.0379672,1307255981.9373553,1.9809500257285988e+19,8.43769498715119e-13,5.14215406366425e-13,4.3655745685100555e-11,2.0816681711721685e-17,5.1392445854503421e-11,-1.8072094798747589,3.2715187505589979e-11,4.536900195806215e-11
-20,1528139485.3329093,1.8601246047177447,1528139483.4727848,821525333.01111257,1.6794978815967881e+20,2.190247982980509e-12,2.9086889147267314e-13,1.1641532182693481e-10,5.551115123125783e-17,1.425615181460671e-11,-1.8734722573371283,1.8576166797297104e-10,2.6363754582203747e-10
-10,995671117.89380777,1.9378157063522576,995671115.9559921,513811047.47471476,1.1139817358635344e+19,1.4015455462867976e-12,2.3628928674801486e-13,7.275957614183426e-11,3.469446951953614e-17,-4.4970027701651816e-11,-1.951486793193117,7.9496709248990234e-11,1.1396931141882671e-10
0,648739705.74659276,2.0282513902056962,648739703.71834135,319851724.92883164,2.3245371901053579e+19,1.3145040611561853e-13,3.0077849932919065e-13,1.0186340659856796e-10,5.551115123125783e-17,4.1286085661340621e-11,-2.0423220739565235,1.1508638167698205e-10,1.6272018975305169e-10
10,422696226.43772101,2.1326135747095409,422696224.30510741,198205728.14992592,3.3393446624489359e+18,2.099653784171096e-12,2.1626103685612463e-13,1.4551915228366852e-11,6.938893903907228e-18,-3.3578473335182935e-11,-2.1471686732565365,4.1691521267654388e-12,5.9112610639733276e-12
20,275418853.48591864,2.252215920593637,275418851.23370272,122287943.60592389,6.7716975176181422e+18,5.4001247917767614e-12,1.3224317474413994e-13,4.3655745685100555e-11,2.7755575615628914e-17,1.8416379532482097e-11,-2.2673546551923045,5.3257424170720189e-11,7.8906565309511123e-11
30,179463718.96178573,2.388517562014759,179463716.57326818,75136026.55297403,3.2801720029622395e+18,1.929123527588672e-12,8.001663567847039e-13,7.275957614183426e-11,3.469446951953614e-17,1.2222578504861303e-10,-2.4043699991186718,8.1152938165695329e-11,1.1744286099180101e-10
40,116950969.18841845,2.5431383030191186,116950966.64528014,45986869.47130584,8.5282544265161175e+18,2.0463630789890885e-12,2.8364463555696773e-14,1.0186340659856796e-10,4.85722573273506e-17,8.092460035413751e-11,-2.5599146461088407,1.301147580411658e-10,1.8582108074483017e-10
50,76233198.711841837,2.717875434403592,76233195.993966401,28048819.952107325,8.0858464367534221e+17,2.7498003873915877e-12,6.625923767988873e-13,1.7462298274040222e-10,8.326672684688674e-17,-1.7873779757490047e-11,-2.736016363354536,1.8656335243362697e-10,2.6563818852909371e-10
60,49725550.971948519,2.9147223424987727,49725548.057226174,17060133.051753782,7.0531462614681971e+17,2.5437429940211587e-12,6.851593944978696e-14,1.4551915228366852e-10,7.632783294297951e-17,-1.2694423290326995e-10,-2.9353598725989238,2.1077111776331325e-10,3.0057125538496265e-10
70,32493358.770370223,3.1358890996003006,32493355.634481125,10361769.099076819,6.007614577645088e+17,2.2502888441522373e-11,7.835303586500864e-13,2.6193447411060333e-10,1.3183898417423734e-16,2.0308800112804469e-13,-3.1622565277055665,4.1867717536891772e-10,6.1446507951257168e-10
80,21334569.267656859,3.2488120873400019,21334566.018844772,6566883.123463369,1.2637980818588529e+19,1.070787902790471e-11,1.0329029298539183e-12,2.1827872842550278e-11,6.938893903907228e-18,6.6083583050158268e-11,-3.4255200852314132,6.147279189664928e-11,8.6525404896509173e-11
90,14186786.190730048,3.6612449951035373,14186782.529485052,3874853.0103019932,3.99919766495096e+17,7.94386778579792e-12,1.1916995168448352e-12,2.255546860396862e-10,1.0755285551056204e-16,8.5897067236828661e-11,-3.7466752518307871,3.230111333758291e-10,4.6594346436723555e-10
100,9749979.4663923755,3.9711551203165225,9749975.4952372555,2455199.8526854953,97885544639580160.0,2.4101609596982598e-11,9.354711449915953e-12,2.6193447411060333e-10,1.2836953722228372e-16,1.8590373684901351e-10,-4.1805159152333626,2.9662747414772398e-10,4.4864065240624029e-10
"{'distance': [0.357, 0.441, 0.473], 'solute_3': [17.27, -2.51, 13.06], 'solute_2': [17.1, -12.11, 17.59], 'solute_1': [8.0, -10.0, 8.0]}","{'solute_3i': '267.0 uM', 'solute_1e': '317.0 mM', 'solute_2i': '75.0 nM', 'solute_3e': '265.0 mM', 'solute_1i': '498.0 nM', 'solute_2e': '215.0 uM'}"
voltage,"current, barrier 0","current, barrier 1",solute_3 transport over barrier 0,solute_3 transport over barrier 1,solute_2 transport over barrier 0,solute_2 transport over barrier 1,solute_1 transport over barrier 0,solute_1 transport over barrier 1
-150,-0.07875485590185398,-0.07875485590185399,-1.6968749031511743,-1.6968749031755113,-0.011601601789913079,-0.011601601789193826,-163866.63888348977,-163866.6388834898
-140,-0.07579347744362097,-0.07579347744362099,-1.9140794448600267,-1.9140794448598275,-0.011071002306889878,-0.011071002306450552,-157704.65845160867,-157704.6584516087
-130,-0.07294393203430193,-0.07294393203430191,-2.1635987860684818,-2.163598786068663,-0.010555757216479649,-0.010555757216261091,-151775.35111143146,-151775.35111143143
-120,-0.07020198150160545,-0.0702019815016055,-2.4513060907882718,-2.451306090788838,-0.010055692639469845,-0.010055692639363885,-146069.8944452103,-146069.8944452104
-110,-0.06756353869528715,-0.06756353869528713,-2.7843572572237942,-2.78435725722328,-0.009570766480355505,-0.009570766480815831,-140579.77941637862,-140579.77941637856
-100,-0.06502466101390769,-0.06502466101390769,-3.1715062044770983,-3.171506204476985,-0.009101063098208712,-0.009101063098167772,-135296.7966902806,-135296.7966902806
-90,-0.06258154411738867,-0.06258154411738864,-3.623502158256178,-3.6235021582557194,-0.008646781400503796,-0.00864678140086431,-130213.02328683734,-130213.0232868373
-80,-0.060230515610871185,-0.060230515610871165,-4.153590544874733,-4.153590544874821,-0.008208215797506486,-0.008208215797541272,-125320.80910443631,-125320.80910443627
-70,-0.057968028306770704,-0.057968028306770704,-4.778144523759167,-4.778144523759953,-0.007785730037165272,-0.0077857300380576415,-120612.76247907497,-120612.76247907497
-60,-0.0557906524010514,-0.05579065240105139,-5.5174605013722875,-5.517460501371575,-0.007379724623555477,-0.007379724623802523,-116081.7333749711,-116081.73337497108
-50,-0.05369506546949226,-0.05369506546949228,-6.396757540911194,-6.39675754090931,-0.006990598999132782,-0.0069905989992756,-111720.79190323403,-111720.79190323407
-40,-0.051678038494042934,-0.051678038494042886,-7.447425209565412,-7.4474252095667595,-0.006618709465050518,-0.006618709465917172,-107523.19841459431,-107523.19841459421
-30,-0.04973641490915102,-0.049736414909151,-8.70856057323237,-8.708560573231527,-0.006264321378089241,-0.006264321377575026,-103482.35887580212,-103482.35887580208
-20,-0.04786707733832896,-0.04786707733832902,-10.228804536819219,-10.228804536821409,-0.005927545334551514,-0.005927545334260645,-99591.75443316078,-99591.7544331609
-10,-0.04606689181580177,-0.04606689181580174,-12.068380583312846,-12.068380583311445,-0.005608218889082868,-0.005608218889319157,-95844.82399365977,-95844.8239936597
0,-0.044332607999765655,-0.04433260799976571,-14.300919039200867,-14.300919039200735,-0.005305607351134518,-0.005305607350833739,-92234.75537958927,-92234.75537958938
10,-0.04266066550068986,-0.042660665500689865,-17.013746235263348,-17.013746235261248,-0.005017522358301756,-0.005017522358518017,-88754.08215766716,-88754.08215766717
20,-0.04104678035676926,-0.041046780356769286,-20.30281696299544,-20.30281696300084,-0.004737595031722367,-0.004737595031590124,-85393.82658619672,-85393.82658619677
30,-0.03948497241665837,-0.03948497241665833,-24.251596898384037,-24.251596898385966,-0.004446732510217056,-0.00444673250941689,-82141.48994571886,-82141.48994571879
40,-0.037965079292595814,-0.03796507929259586,-28.864366033887677,-28.86436603388563,-0.00408627808393669,-0.004086278083908325,-78975.92423190453,-78975.92423190463
50,-0.036466000511701215,-0.0364660005117013,-33.87293281974352,-33.87293281974077,-0.0034737313994908214,-0.0034737314001534137,-75853.4039836672,-75853.40398366738
60,-0.034936621703380986,-0.03493662170338091,-38.19638201490055,-38.196382014898006,-0.002039016846817388,-0.002039016846885904,-72668.29505333316,-72668.29505333301
70,-0.03324109326208478,-0.03324109326208491,-38.46751246391944,-38.467512463941944,0.001992469504225977,0.0019924695050095075,-69140.17733806113,-69140.17733806139
80,-0.03100395320726025,-0.03100395320726026,-25.165642770188718,-25.16564277017801,0.014061267241095913,0.014061267242128816,-64494.167484731006,-64494.16748473103
90,-0.02720283337075914,-0.02720283337075925,26.56491472095219,26.564914720960132,0.05014071419487806,0.05014071419606976,-56619.57733471281,-56619.57733471304
100,-0.019332440103659858,-0.019332440103659986,172.64753264986894,172.64753264984483,0.1519769995800848,0.1519769995894395,-40340.88517117535,-40340.885171175614
"{'distance': [0.357, 0.441, 0.473], 'solute_3': [17.27, -2.51, 13.06], 'solute_2': [17.1, -12.11, 17.59], 'solute_1': [8.0, -10.0, 8.0]}","{'solute_3i': '267.0 uM', 'solute_1e': '317.0 mM', 'solute_2i': '75.0 nM', 'solute_3e': '265.0 mM', 'solute_1i': '498.0 nM', 'solute_2e': '215.0 uM'}"
voltage,current,solute_3,solute_2,solute_1
-150,-0.07875485590195776,-1.6968749030779176,-0.011601601787402969,-163866.63888370575
-140,-0.07579347744193354,-1.91407944489892,-0.011071002335571496,-157704.65844809753
-130,-0.07294393203684298,-2.1635987860529764,-0.010555757172409115,-151775.35111671872
-120,-0.07020198150235762,-2.451306090977909,-0.010055692626384883,-146069.89444677526
-110,-0.06756353869504811,-2.7843572572333706,-0.009570766484940567,-140579.77941588123
-100,-0.06502466101352787,-3.171506204265759,-0.009101063104722001,-135296.79668949044
-90,-0.0625815441164475,-3.623502158186682,-0.00864678141710614,-130213.02328487903
-80,-0.0602305156116861,-4.1535905449444845,-0.008208215783477989,-125320.8091061319
-70,-0.057968028307478894,-4.778144523817547,-0.007785730025836211,-120612.7624805485
-60,-0.05579065240187433,-5.517460501426552,-0.007379724609600902,-116081.73337668336
-50,-0.05369506546941417,-6.396757541088787,-0.006990599000624605,-111720.79190307141
-40,-0.05167803849299436,-7.447425209385027,-0.006618709484012183,-107523.1984124126
-30,-0.04973641490683295,-8.708560572979568,-0.0062643214175799765,-103482.35887097898
-20,-0.04786707733848588,-10.228804536848768,-0.0059275453315532824,-99591.75443348727
-10,-0.0460668918143158,-12.068380583115445,-0.005608218914966233,-95844.82399056797
0,-0.04433260799933091,-14.300919039140254,-0.005305607358338844,-92234.75537868473
10,-0.04266066549891682,-17.013746234729595,-0.005017522389128311,-88754.08215397826
20,-0.04104678035728706,-20.30281696313842,-0.004737595022648137,-85393.82658727403
30,-0.03948497241601058,-24.251596897964113,-0.004446732520608832,-82141.48994437125
40,-0.03796507929273896,-28.864366033946858,-0.004086278081433105,-78975.92423220232
50,-0.03646600051082462,-33.872932818807456,-0.003473731415357591,-75853.40398184385
60,-0.03493662170279174,-38.196382014300326,-0.0020390168571719665,-72668.29505210748
70,-0.03324109326167844,-38.46751246367103,0.0019924694977831187,-69140.17733721582
80,-0.031003953207261483,-25.16564277036764,0.01406126724215061,-64494.16748473344
90,-0.02720283337092729,26.56491472120115,0.0501407141997492,-56619.57733506286
100,-0.019332440103924167,172.64753265226864,0.15197699959868893,-40340.88517172693
"{'distance': [0.357, 0.441, 0.473], 'solute_3': [17.27, -2.51, 13.06], 'solute_2': [17.1, -12.11, 17.59], 'solute_1': [8.0, -10.0, 8.0]}","{'solute_3i': '267.0 uM', 'solute_1e': '317.0 mM', 'solute_2i': '75.0 nM', 'solute_3e': '265.0 mM', 'solute_1i': '498.0 nM', 'solute_2e': '215.0 uM'}"
voltage,largest element,smallest element,element difference,element ratio difference,condition number,transport error solute_3,transport error solute_2,transport error solute_1,current errors,smallest eigenvalue,second smallest eigenvalue,sum absolute errors,sum squared errors
-150,400694731024.72076,1.6479743563141505,400694731023.07281,243143790126.02609,9.7176924676652471e+22,7.586331562947635e-11,2.8908004462424586e-12,2.0372681319713593e-10,1.249000902703301e-16,1.9029861594522619,5.8312740741782061e-12,3.2826739300353308e-10,5.207769770976256e-10
-140,261073320048.39963,1.6257459981247748,261073320046.7739,160586783144.19104,5.1197247211087436e+21,8.183675959116954e-11,3.575645508846481e-11,2.6193447411060333e-10,8.326672684688674e-17,1.8773169769103792,7.2115488035309508e-11,3.0847078852553843e-10,5.1579490852049492e-10
-130,170102794013.21854,1.6085817861260403,170102794011.60995,105747059602.65681,2.1203849131869812e+21,9.128031663863112e-11,5.625561474986718e-11,1.1641532182693481e-10,0.0,1.8574955119149099,1.1345118886355338e-10,1.6560208763110352e-10,3.1268249447991003e-10
-120,110830811052.49132,1.5967392140069729,110830811050.89458,69410715338.019699,4.5156987857557447e+21,1.64171343186581e-10,1.7212346131723066e-11,1.7462298274040222e-10,1.3877787807814457e-16,1.8438190960323337,3.4709427123708823e-11,4.4588560340200742e-10,7.4575002076415764e-10
-110,72212054556.533752,1.5905136166528187,72212054554.943237,45401720425.695908,8.3206596194033635e+21,1.9535928430514105e-11,6.0870440632410094e-12,8.731149137020111e-11,4.163336342344337e-17,1.8366287570623669,1.2273357134833081e-11,1.7182105321991981e-10,2.6674253778002921e-10
