"{'distance': [0.048, 0.147, 0.265, 0.456, 0.563], 'solute_6': [7.6, -0.17, 5.5, -6.58, 6.56], 'solute_5': [6.73, -6.47, 5.28, -0.42, 7.84], 'solute_4': [7.35, -4.98, 6.46, -6.45, 6.19], 'solute_3': [6.5, -0.25, 5.81, -2.55, 6.72], 'solute_2': [7.09, -4.73, 4.77, -1.81, 7.44], 'solute_1': [7.74, -7.8, 0.71, -5.2, 6.46]}","{'solute_5e': '103.0 uM', 'solute_6e': '120.0 mM', 'solute_6i': '68.0 mM', 'solute_5i': '10.0 uM', 'solute_4i': '91.0 uM', 'solute_3i': '14.0 uM', 'solute_1e': '91.0 mM', 'solute_2i': '118.0 uM', 'solute_3e': '47.0 mM', 'solute_1i': '19.0 uM', 'solute_2e': '83.0 mM', 'solute_4e': '76.0 mM'}"
voltage,current,solute_6,solute_5,solute_4,solute_3,solute_2,solute_1
-150,-339.88985858794297,-58117369.614132814,-362500.4063067097,-196944765.94854984,-128582394.22854792,-278014481.79078877,-126096122.70852679
-140,-297.77373449417854,-50853033.47504367,-322227.2168606319,-173392234.16508666,-106744366.72413135,-245579881.70790187,-115057725.95199321
-130,-258.62274722441833,-44072332.72259425,-281896.06079162,-150958336.7059217,-87594705.9963154,-215047458.88701838,-104468286.39383568
-120,-222.24487920840258,-37764034.27439425,-241371.13846404862,-129571316.52613068,-70885718.70349398,-186332891.2451661,-94339909.30429558
-110,-188.49489911958514,-31919986.803000633,-200747.35338268598,-109203880.38134718,-56413516.09801322,-159358946.25848898,-84685915.92356497
-100,-157.27235670700344,-26533401.705132995,-160561.93577085,-89897550.79560909,-44001605.702454515,-134049881.69799417,-75511716.45628834
-90,-128.52044108486444,-21596902.808880076,-122003.90083749547,-71789769.52138822,-33484385.24391209,-110329309.17443019,-66799320.96010935
-80,-102.236332888777,-17103651.61023981,-86918.44930488357,-55135354.66286344,-24699351.453946296,-88139263.70399523,-58489979.19407126
-70,-78.50830262411402,-13056434.280401364,-57365.46005678423,-40304962.60249824,-17494650.322650798,-67511444.20603465,-50479987.20894086
-60,-57.57924740964083,-9486025.021448273,-34787.90156918316,-27731962.381872103,-11747894.352242388,-48706743.05405855,-42652809.92305267
-50,-39.87666859982289,-6465418.94182892,-19335.346775454134,-17782216.249946736,-7372510.6044365605,-32345405.724528804,-34956771.91888228
-40,-25.88055511396656,-4088729.4521277123,-9890.068413467248,-10572606.69151205,-4279530.668652194,-19300147.11755288,-27493083.51381141
-30,-15.782321657551647,-2400501.210141702,-4708.584943636972,-5852450.812142758,-2304135.233705743,-10182221.459657077,-20545012.00351131
-20,-9.188523999608627,-1330085.4674365025,-2126.5485821700113,-3065734.8819675916,-1176321.9568838333,-4765903.759241732,-14499179.457290888
-10,-5.225645057062134,-710561.6410929919,-933.2666998066852,-1563007.9234380021,-590122.1101681099,-2035885.5190760149,-9670016.195035547
0,-2.954569535303322,-363084.4997985987,-404.67624745580224,-802010.1016848849,-300761.2514760018,-830548.3891144563,-6139576.379614145
10,-1.670048528487336,-156130.01676032715,-169.00674923524002,-425702.85146148514,-158578.46743200757,-338292.3971175919,-3750291.5796658844
20,-0.9377560049236093,-10425.925427224021,-55.62058630890738,-235900.69938447184,-86488.1883726063,-141028.6645804823,-2226434.067356065
30,-0.5117846798660842,119279.68572161812,9.23001979434082,-133925.6471608145,-48051.874880833595,-59509.85993439623,-1294748.4614211693
40,-0.2544411081946242,260852.1868166062,57.96736773685393,-72489.58356581214,-26456.709605398966,-23237.519952854957,-741344.1344564334
50,-0.08629341002719462,434951.38890586747,107.09189876455167,-27131.628499652565,-13680.917183017766,-4574.183269902191,-418832.9364534095
60,0.04173831800644823,660934.7284270469,168.14830171517264,18971.0062959039,-5493.786690650995,8260.702186693845,-232972.98819177225
70,0.16458874994716005,960788.2671744223,252.91373605436726,83899.38617832641,722.2551914264768,21547.615979279944,-126203.21191373095
80,0.31393597023375186,1362561.8981688027,376.84434338675135,194271.73124885513,6992.882879039804,40404.833061005775,-64336.83863763139
90,0.5274523833252602,1904357.65777379,562.7568273554388,393697.93451682664,15440.665117029323,71422.19243748821,-27351.864566396922
100,0.8589591759963118,2639770.6881722864,846.1246227851318,754393.8321407891,29076.861205519926,125626.17243794835,-3480.4627775996923
"{'distance': [0.048, 0.147, 0.265, 0.456, 0.563], 'solute_6': [7.6, -0.17, 5.5, -6.58, 6.56], 'solute_5': [6.73, -6.47, 5.28, -0.42, 7.84], 'solute_4': [7.35, -4.98, 6.46, -6.45, 6.19], 'solute_3': [6.5, -0.25, 5.81, -2.55, 6.72], 'solute_2': [7.09, -4.73, 4.77, -1.81, 7.44], 'solute_1': [7.74, -7.8, 0.71, -5.2, 6.46]}","{'solute_5e': '103.0 uM', 'solute_6e': '120.0 mM', 'solute_6i': '68.0 mM', 'solute_5i': '10.0 uM', 'solute_4i': '91.0 uM', 'solute_3i': '14.0 uM', 'solute_1e': '91.0 mM', 'solute_2i': '118.0 uM', 'solute_3e': '47.0 mM', 'solute_1i': '19.0 uM', 'solute_2e': '83.0 mM', 'solute_4e': '76.0 mM'}"
voltage,largest element,smallest element,element difference,element ratio difference,condition number,transport error solute_6,transport error solute_5,transport error solute_4,transport error solute_3,transport error solute_2,transport error solute_1,current errors,smallest eigenvalue,second smallest eigenvalue,sum absolute errors,sum squared errors
-150,62800409290076.242,39.521967586921825,62800409290036.719,1589000070706.4358,1.8258341024788688e+17,0.00463595986366272,0.0029289056546986103,0.012094169855117798,0.005218774080276489,0.003679990768432617,0.003910809755325317,4.370747319626389e-09,0.017562677046832984,-121060751.31853335,0.015023363235154481,0.035942796366413177
-140,58796445443625.852,66.77018568021802,58796445443559.078,880579331098.75195,42310697655557808.0,0.002660110592842102,0.007256479177158326,0.0009850561618804932,0.0023234784603118896,0.004355430603027344,0.0021151453256607056,1.945238636835711e-09,0.010246056035477671,-105734432.03539246,0.0084563482815325584,0.020104984883445809
-130,55724455942112.656,112.80454815326733,55724455941999.852,493991216261.95374,95255704882475984.0,0.0032506510615348816,0.002220901194959879,0.006092727184295654,0.003194838762283325,0.000992417335510254,0.00259949266910553,1.890839484985918e-09,0.012244984897148961,-91884473.47862877,0.0082470489178867405,0.020474412908896511
-120,53528841655939.328,190.5770660127547,53528841655748.75,280877666845.58368,81191932515280448.0,0.0005610436201095581,0.00475128143443726,0.0021925270557403564,0.0035023242235183716,0.0018250644207000732,0.0009645223617553711,1.1247323072893778e-09,-0.0022029781765827115,-79724039.490832657,0.0061210206575055852,0.014288630337752295
-110,52167855768771.687,321.96944790455143,52167855768449.719,162027347962.02454,6.782387484247392e+17,0.010746099054813385,0.000965060869930312,0.022523999214172363,0.0035479962825775146,0.005839824676513672,0.008639737963676453,5.329837904355372e-09,-0.035516971470574706,-69430382.944761306,0.026867459185843892,0.053177126338276537
-100,51612836869892.969,543.94963440681636,51612836869349.016,94885323208.604401,64709863981639832.0,0.00796719640493393,0.0024715632025618106,0.009457960724830627,0.0024672523140907288,0.0030583441257476807,0.006524398922920227,3.554475824785186e-09,0.024163147819665855,-61142151.184177317,0.013317327998742768,0.033416669173369939
-90,51847648274978.484,918.97292335334851,51847648274059.508,56419125044.278229,2.3082067457672458e+17,0.004616506397724152,0.005355004439479671,0.012868627905845642,0.001167941838502884,0.0031009167432785034,0.0033482834696769714,2.1324808585632127e-09,-0.012516697603260749,-54949713.948115714,0.015443077060315367,0.030521343504556597
-80,52868313082510.75,1464.9617650045575,52868313081045.789,36088527595.357597,36999249860550936.0,0.016927018761634827,0.000707825951394625,0.025486081838607788,0.0014448128640651703,0.007269233465194702,0.014022111892700195,5.6103317547240295e-09,-0.041590669378342771,-50882953.306756005,0.031763510863116858,0.062013703925789088
-70,54682837548532.594,2078.0483150558125,54682837546454.547,26314516920.682816,41101455499080976.0,0.026668444275856018,0.0016120748332468793,0.047312863171100616,0.0030476972460746765,0.012989938259124756,0.02368483692407608,8.424208886026463e-09,0.057765046863442679,-48901887.993905663,0.056439406116887032,0.1058814223367861
-60,57311218295786.062,2947.7116078131016,57311218292838.352,19442613769.908474,1.3612072611883978e+17,0.005194246768951416,0.0022662550472887233,0.011808671057224274,0.000702323392033577,0.005280226469039917,0.0042709410190582275,1.2427818774085608e-09,-0.010143849454263901,-48894966.328695476,0.014256484686636369,0.029725526859063933
-50,60785631710451.289,4181.3290191006608,60785631706269.961,14537395032.243919,98991805293541952.0,0.012215957045555115,0.0009055926784640178,0.01956530287861824,0.0004068901762366295,0.005797684192657471,0.011589378118515015,3.2980267405946506e-09,0.020607014928884927,-50687717.528191179,0.023394829736925832,0.043445545637019301
-40,65150806664729.281,5931.2153602924054,65150806658798.062,10984394041.884424,87765584059776816.0,0.0046116262674331665,0.0011623970058280975,0.017144178971648216,0.00034770742058753967,0.013751637190580368,0.004507485777139664,6.880576108869718e-10,0.007067850147840244,-54061382.735931218,0.022458063832406359,0.038851075447590588
-30,70464584479234.797,8413.4291966660621,70464584470821.375,8375251378.7312031,1.4093345427146098e+17,0.019617825746536255,0.010027628759416984,0.04035989288240671,0.0008219769224524498,0.008953221142292023,0.018991965800523758,8.357845970863309e-09,0.027590249658995886,-58779073.475819796,0.045958874230699505,0.083887365336199338
-20,76798672847861.297,11934.449610648306,76798672835926.844,6435041024.3752689,2.3019039680895862e+17,0.006089270114898682,6.478767318185419e-06,0.007932059466838837,0.0009864324238151312,0.0024641696363687515,0.006084015592932701,1.6587549112045963e-09,-0.0081061782840507277,-64617114.741423681,0.0098284266522941765,0.018584856190272614
-10,84239603331828.219,16929.01719141391,84239603314899.203,4976048070.5609426,1.934049954467105e+18,0.034578241407871246,0.0011227305626562156,0.037513528717681766,0.0025675042998045683,0.0015721735544502735,0.03622681647539139,5.509705580664104e-09,0.042974555850169231,-71395099.464010417,0.04971306798882609,0.086035275699532843
0,92889905032138.016,24013.811479959772,92889905008124.203,3868186652.0713449,5.3857859690910464e+17,0.0007599713280797005,0.00043635463453028933,0.002118302625603974,0.00025455548893660307,0.0026020961813628674,0.0012064483016729355,5.245235357165257e-10,-0.00090932399980279456,-78986763.64601776,0.0029069645020024103,0.0074641642930863839
10,102869510215165.72,34063.592426825628,102869510181102.12,3019925465.4701166,4.2788011685319962e+17,0.007685888558626175,0.0014173603040035232,0.008276291307993233,5.394031177274883e-05,0.0015237333718687296,0.008441412821412086,7.597626972000171e-10,0.0089351235009787703,-87306110.550411254,0.011316634827981946,0.021169773650950408
20,114317411041134.25,48319.207052542246,114317410992815.05,2365879285.1634679,7.7117984146204403e+17,0.0014690011739730835,0.0007983724390214775,0.000597546633798629,0.0009198315674439073,0.0036530871293507516,0.0014304034411907196,1.5315106960400726e-09,0.0016515416030445423,-96291453.860000044,0.0043023384363108505,0.009245005527843686
30,127393590179095.89,68540.796899266526,127393590110555.09,1858653472.7094655,6.928391393112041e+17,0.003511992283165455,0.000927020657400135,0.004541949019767344,0.0008375811885343865,0.002540653309551999,0.0038026594556868076,1.8907042598215185e-09,-0.0042314176946572938,-105894525.88898055,0.0064262905354416653,0.013156347464833296
40,142281252037504.41,97225.122806300948,142281251940279.28,1463420646.132457,7.6383995889065114e+17,0.0036159008741378784,0.002227092199063918,0.00043162186921108514,0.0007216117592179216,0.0004005533701274544,0.0035952478647232056,3.970648254636444e-10,-0.0039864434583534629,-116053897.80296358,0.0041964849059944933,0.0081763207824137041
50,159189385653522.0,137913.84011179276,159189385515608.16,1154266935.9687419,6.4713989154626342e+17,0.0024858154356479645,0.0013440681859719916,0.0009867158951237798,0.00023324560606852174,0.0008051051408983767,0.0024089664220809937,2.590273967539858e-10,-0.0026690395146223484,-126607644.32036592,0.0030377059313564294,0.0068423429978214934
60,178355695028908.53,195630.78703715946,178355694833277.75,911695432.657184,6.4695053831453568e+17,0.00018613412976264954,0.000619102141570238,0.0001625914592295885,0.0006394640367943794,0.0005459348321892321,0.0006695184856653214,2.47574599709921e-10,0.00014135912540574612,-136991538.11462089,0.001133204947413787,0.0028908833401946055
70,200049937943699.12,277502.27827573859,200049937666196.84,720894758.72670352,9.8024468268563802e+17,0.0007814764976501465,2.41362376982579e-05,0.00027306796982884407,0.0008368701965082437,0.00042830072925426066,0.0007846932858228683,4.588990021314743e-10,0.00074780973167744931,-145556557.52019331,0.0011686347539298085,0.0030860355771018533
80,224577720095821.78,393636.99147004954,224577719702184.78,570519857.0315491,1.3038204307566218e+18,0.0024086162447929382,0.001954552878373761,6.603123620152473e-05,0.0002465835423208773,0.00029463355895131826,0.002065960317850113,3.9127223683266266e-10,-0.0024921294891824312,-150746027.89513588,0.0029639854417841229,0.0053770015221572542
90,252284797888281.62,531218.29496458545,252284797357063.34,474917374.41968298,2.5049967749794048e+18,0.00022859126329421997,0.0007710335374895294,9.090732783079147e-05,0.0001760554441716522,0.0012820556294173002,0.000565333291888237,3.862395958620368e-10,0.00019261366911854793,-153495025.56115729,0.0012904982476914292,0.0033317347362231686
100,283561950407665.69,511206.20361716818,283561949896459.5,554691919.62314177,2.6943943471030305e+19,0.0005994550883769989,0.0006486844629307598,0.00036897649988532066,0.00035324954660609365,0.0009461747831664979,0.0006923004984855652,4.2013881262903396e-10,0.00056623727955753959,-154963094.39174077,0.001424391730820388,0.0040246278523126122
"{'distance': [0.048, 0.147, 0.265, 0.456, 0.563], 'solute_6': [7.6, -0.17, 5.5, -6.58, 6.56], 'solute_5': [6.73, -6.47, 5.28, -0.42, 7.84], 'solute_4': [7.35, -4.98, 6.46, -6.45, 6.19], 'solute_3': [6.5, -0.25, 5.81, -2.55, 6.72], 'solute_2': [7.09, -4.73, 4.77, -1.81, 7.44], 'solute_1': [7.74, -7.8, 0.71, -5.2, 6.46]}","{'solute_5e': '103.0 uM', 'solute_6e': '120.0 mM', 'solute_6i': '68.0 mM', 'solute_5i': '10.0 uM', 'solute_4i': '91.0 uM', 'solute_3i': '14.0 uM', 'solute_1e': '91.0 mM', 'solute_2i': '118.0 uM', 'solute_3e': '47.0 mM', 'solute_1i': '19.0 uM', 'solute_2e': '83.0 mM', 'solute_4e': '76.0 mM'}"
voltage,"current, barrier 0","current, barrier 1","current, barrier 2",solute_6 transport over barrier 0,solute_6 transport over barrier 1,solute_6 transport over barrier 2,solute_5 transport over barrier 0,solute_5 transport over barrier 1,solute_5 transport over barrier 2,solute_4 transport over barrier 0,solute_4 transport over barrier 1,solute_4 transport over barrier 2,solute_3 transport over barrier 0,solute_3 transport over barrier 1,solute_3 transport over barrier 2,solute_2 transport over barrier 0,solute_2 transport over barrier 1,solute_2 transport over barrier 2,solute_1 transport over barrier 0,solute_1 transport over barrier 1,solute_1 transport over barrier 2
-150,-339.8898585835722,-339.88985858794297,-339.88985858488894,-58117369.61431292,-58117369.614132814,-58117369.60967696,-362500.4092300188,-362500.4063067097,-362500.40630111314,-196944765.93645567,-196944765.94854984,-196944765.9468394,-128582394.2306841,-128582394.22854792,-128582394.22546533,-278014481.78779185,-278014481.79078877,-278014481.79147184,-126096122.71130405,-126096122.70852679,-126096122.70739324
-140,-297.77373449295203,-297.77373449417854,-297.7737344922333,-50853033.47510859,-50853033.47504367,-50853033.47244848,-322227.2096041527,-322227.2168606319,-322227.2166618364,-173392234.16554046,-173392234.16508666,-173392234.1645554,-106744366.72180787,-106744366.72413135,-106744366.72324444,-245579881.71117142,-245579881.70790187,-245579881.706816,-115057725.95328933,-115057725.95199321,-115057725.95117418
-130,-258.6227472225275,-258.62274722441833,-258.62274722283144,-44072332.72270167,-44072332.72259425,-44072332.71945102,-281896.05867493246,-281896.06079162,-281896.06089583365,-150958336.69982898,-150958336.7059217,-150958336.70573306,-87594705.99891585,-87594705.9963154,-87594705.99572101,-215047458.88676685,-215047458.88701838,-215047458.88602597,-104468286.39561288,-104468286.39383568,-104468286.39301339
-120,-222.24487920891377,-222.24487920840258,-222.2448792095273,-37764034.27438493,-37764034.27439425,-37764034.274945974,-241371.14321533006,-241371.13846404862,-241371.1385940274,-129571316.5283232,-129571316.52613068,-129571316.52652317,-70885718.70099682,-70885718.70349398,-70885718.70449914,-186332891.24372765,-186332891.2451661,-186332891.24555272,-94339909.30375919,-94339909.30429558,-94339909.30472371
-110,-188.49489912491498,-188.49489911958514,-188.4948991241079,-31919986.802759454,-31919986.803000633,-31919986.813505553,-200747.3542902795,-200747.35338268598,-200747.35332521863,-109203880.40387118,-109203880.38134718,-109203880.38410553,-56413516.09486851,-56413516.09801322,-56413516.09841651,-159358946.25408998,-159358946.25848898,-159358946.2599298,-84685915.91694245,-84685915.92356497,-84685915.92558219
-100,-157.27235670344896,-157.27235670700344,-157.2723567036197,-26533401.705278337,-26533401.705132995,-26533401.69731114,-160561.9332992868,-160561.93577085,-160561.93575654688,-89897550.78615113,-89897550.79560909,-89897550.79420005,-44001605.69998726,-44001605.702454515,-44001605.70071907,-134049881.70058328,-134049881.69799417,-134049881.69752494,-75511716.46159758,-75511716.45628834,-75511716.45507318
-90,-128.52044108699693,-128.52044108486444,-128.52044108594765,-21596902.808806293,-21596902.808880076,-21596902.8134228,-122003.89550944098,-122003.90083749547,-122003.90086444542,-71789769.53425685,-71789769.52138822,-71789769.52195168,-33484385.24306415,-33484385.24391209,-33484385.242744148,-110329309.17237772,-110329309.17443019,-110329309.17547864,-66799320.95717764,-66799320.96010935,-66799320.96052592
-80,-102.23633289438733,-102.236332888777,-102.23633289328507,-17103651.609996527,-17103651.61023981,-17103651.626923546,-86918.44861852686,-86918.44930488357,-86918.44932635281,-55135354.68834952,-55135354.66286344,-55135354.66464941,-24699351.45539111,-24699351.453946296,-24699351.45406613,-88139263.69739291,-88139263.70399523,-88139263.70466214,-58489979.18189685,-58489979.19407126,-58489979.19591896
-70,-78.50830261568981,-78.50830262411402,-78.5083026173794,-13056434.280713573,-13056434.280401364,-13056434.254045129,-57365.46166885906,-57365.46005678423,-57365.46009652134,-40304962.55518538,-40304962.60249824,-40304962.60046617,-17494650.325531065,-17494650.322650798,-17494650.32248337,-67511444.2175022,-67511444.20603465,-67511444.20451227,-50479987.230327435,-50479987.20894086,-50479987.2066426
-60,-57.57924741088361,-57.57924740964083,-57.57924741087984,-9486025.021435916,-9486025.021448273,-9486025.026630163,-34787.89934987559,-34787.90156918316,-34787.901616130635,-27731962.393680774,-27731962.381872103,-27731962.38260816,-11747894.352429599,-11747894.352242388,-11747894.352944711,-48706743.048778325,-48706743.05405855,-48706743.05323842,-42652809.91908355,-42652809.92305267,-42652809.92335449
-50,-39.876668596524866,-39.87666859982289,-39.87666859731078,-6465418.941923693,-6465418.94182892,-6465418.929707736,-19335.347681046813,-19335.346775454134,-19335.346784023768,-17782216.230381433,-17782216.249946736,-17782216.249880347,-7372510.60402967,-7372510.6044365605,-7372510.604359991,-32345405.729687124,-32345405.724528804,-32345405.72388944,-34956771.92985664,-34956771.91888228,-34956771.918267265
