"{'distance': [0.483, 0.496, 0.511, 0.729, 0.812], 'solute_6': [17.76, -0.74, 11.62, -10.68, 17.55], 'solute_5': [13.96, -16.52, 2.63, -6.77, 8.44], 'solute_4': [13.2, -14.21, 14.27, -1.91, 8.95], 'solute_3': [12.4, -5.77, 1.52, -9.82, 8.87], 'solute_2': [7.52, -19.29, 14.8, -4.1, 13.5], 'solute_1': [10.24, -5.56, 4.28, -1.82, 10.11]}","{'solute_5e': '27.0 uM', 'solute_6e': '362.0 mM', 'solute_6i': '336.0 mM', 'solute_5i': '194.0 nM', 'solute_4i': '387.0 uM', 'solute_3i': '459.0 nM', 'solute_1e': '453.0 mM', 'solute_2i': '307.0 mM', 'solute_3e': '207.0 nM', 'solute_1i': '427.0 nM', 'solute_2e': '177.0 uM', 'solute_4e': '164.0 mM'}"
voltage,current,solute_6,solute_5,solute_4,solute_3,solute_2,solute_1
-150,-2.132065495825637e-05,-0.6534293113139111,-0.00015941478327046062,-3.36572693110633,-3.7644417656094822e-06,6.929961292664541e-06,-60.5150525404294
-140,-2.783995361284792e-05,-0.7131040333580392,-0.00031829496364415004,-3.298169907060358,-9.189066275054544e-06,1.700625593268613e-05,-80.87417024486588
-130,-3.6760843560423296e-05,-0.780199945798208,-0.0006566623769500049,-3.2299389329206556,-4.047224415653467e-06,3.874285108497623e-05,-108.71869702831543
-120,-4.897335393821001e-05,-0.8568394865977913,-0.0013417593355515526,-3.159938532288724,-1.0432474927820462e-05,8.449175126006632e-05,-146.82486162765662
-110,-6.564604227527616e-05,-0.9429141431339337,-0.0027335210165799983,-3.086202660167816,-1.3682052259378037e-05,0.00017911459471968232,-198.84280630452884
-100,-8.82285162005968e-05,-1.036927950466364,-0.0055598302044687214,-3.00515745080009,-1.776784807428019e-05,0.00037245790372639225,-269.3041611950283
-90,-0.00011829055571246917,-1.1378091838099682,-0.011236988854459213,-2.910319396432004,-2.4896310824979362e-05,0.0007648012914176611,-363.1190371272763
-80,-0.0001569018976157734,-1.238920235928473,-0.02244101015296537,-2.7902096551385966,-3.1365428255619656e-05,0.0015613296201234747,-483.6521311355243
-70,-0.00020296653298027765,-1.326044198180631,-0.04392060187565352,-2.6257676801662315,-4.1124729346641914e-05,0.0031977865651941694,-627.5304470042702
-60,-0.0002498262755478143,-1.371638689939355,-0.0827653459268465,-2.3896605023937876,-5.0679235753885686e-05,0.006645328246665597,-774.0523860534317
-50,-0.00028130234320285235,-1.3344461377372914,-0.14603318103906882,-2.054671659970752,-4.827855463713799e-05,0.01407833581144174,-872.8226546648548
-40,-0.0002747452307259523,-1.1766997999241249,-0.2325215260410411,-1.6200279099860164,-6.0214418973993794e-05,0.029716717777452373,-853.2104081322905
-30,-0.0002209397196831378,-0.9081710460616442,-0.32055271073221536,-1.1415856393621708,-4.145206167063126e-05,0.05886021064761678,-686.3691329599533
-20,-0.00014289051842426178,-0.5935946206641098,-0.3699939908496783,-0.7144030834516627,-5.688661775875292e-05,0.10268176728412876,-443.8796912702128
-10,-7.59684789685534e-05,-0.3131667926654109,-0.3498095275544777,-0.40394075247276395,-1.3453034315075163e-05,0.15429871415083193,-235.93168520505787
0,-3.503006081998456e-05,-0.04539148805375515,-0.2685544254636629,-0.21229592132908104,9.107802704511059e-05,0.2043531220940381,-108.91373403132093
10,-1.4840161507536086e-05,0.23903349088343973,-0.17004942203866014,-0.10616212664882624,4.134482493095559e-05,0.24942551310109198,-46.55664413813156
20,-5.9810486218989206e-06,0.6100224303533821,-0.09290836019369819,-0.05079494849852502,0.00011183275028275874,0.2953834443255243,-19.607633237732443
30,-2.162431409993907e-06,1.207249888292388,-0.04619019209899178,-0.022255899076974915,0.0001972556521183666,0.3605827991141367,-8.684046247083643
40,-2.4753862087136956e-07,2.237262047155575,-0.021654452749736208,-0.006136979276554138,0.00035564350411931844,0.4879926306588354,-4.352804783938154
50,1.2436442940387454e-06,4.067169841515053,-0.00957353235970726,0.007552471377728967,0.0007159294134320149,0.7755292493197378,-2.6142407589843515
60,3.1721442038217787e-06,7.337125543956603,-0.0036272072348176865,0.03156552898725836,0.0016434493437120778,1.4394566738082177,-1.8720198737510145
70,6.371235407678549e-06,13.182089535264652,-0.0004408635715511533,0.09563369682488111,0.003995692203424994,2.936364277595221,-1.503288165955837
80,1.2066525031631318e-05,23.60277016541565,0.0016787225723945975,0.2815737298847049,0.009464153007437304,6.183140266293377,-1.2675747849248182
90,2.235750899989662e-05,42.103724655023484,0.003609317608721685,0.8090634697355045,0.021011608378962876,12.924903716474127,-1.074459676177412
100,4.0930392112808805e-05,74.7397741193247,0.005874341549583245,2.223687188453438,0.043160761344758214,26.300313805579087,-0.8936561823165903
"{'distance': [0.483, 0.496, 0.511, 0.729, 0.812], 'solute_6': [17.76, -0.74, 11.62, -10.68, 17.55], 'solute_5': [13.96, -16.52, 2.63, -6.77, 8.44], 'solute_4': [13.2, -14.21, 14.27, -1.91, 8.95], 'solute_3': [12.4, -5.77, 1.52, -9.82, 8.87], 'solute_2': [7.52, -19.29, 14.8, -4.1, 13.5], 'solute_1': [10.24, -5.56, 4.28, -1.82, 10.11]}","{'solute_5e': '27.0 uM', 'solute_6e': '362.0 mM', 'solute_6i': '336.0 mM', 'solute_5i': '194.0 nM', 'solute_4i': '387.0 uM', 'solute_3i': '459.0 nM', 'solute_1e': '453.0 mM', 'solute_2i': '307.0 mM', 'solute_3e': '207.0 nM', 'solute_1i': '427.0 nM', 'solute_2e': '177.0 uM', 'solute_4e': '164.0 mM'}"
voltage,largest element,smallest element,element difference,element ratio difference,condition number,transport error solute_6,transport error solute_5,transport error solute_4,transport error solute_3,transport error solute_2,transport error solute_1,current errors,smallest eigenvalue,second smallest eigenvalue,sum absolute errors,sum squared errors
-150,7707859854813482.0,0.010454841432406244,7707859854813482.0,7.3725267902408269e+17,2.6150967280145211e+19,1.4925252417086199e-05,1.34621738621707e-06,1.7499690784461563e-05,5.048882674309203e-07,1.060848702993944e-06,1.2248850111973297e-07,9.738967173943819e-13,-7.0829018628011564e-05,-479.70476203068313,2.2352173083297029e-05,3.6134087661588895e-05
-140,6977223069218865.0,0.010392300195147183,6977223069218865.0,6.7138390329380288e+17,2.5413692173792395e+20,6.73703531850478e-07,3.84630884768506e-06,2.5738267783737e-07,3.5399258421030374e-06,6.604836795265356e-07,1.2905809398944257e-07,6.924172505165267e-13,3.3928311489565984e-05,-590.78654553270303,5.3040163003701998e-06,9.1966634474802944e-06
-130,6315852214640243.0,0.010330133081817518,6315852214640243.0,6.1140085656369984e+17,6.6785083044921852e+19,0.0005438472327780053,6.09634164138893e-07,0.0005480835634443793,3.474093874830642e-06,1.2188200116280967e-05,1.1746155337277742e-07,2.981372764496778e-12,-0.00057235546967719414,-722.74194248129322,0.00076444907516788065,0.0010984813019156391
-120,5717180859002119.0,0.010268337854394453,5717180859002119.0,5.5677763432329856e+17,6.9614362736736453e+19,0.00024248277044680577,4.2505707577842645e-07,0.00024169048424482753,4.028374828706152e-07,2.117608452145703e-06,4.0181760141422274e-08,5.231778416525321e-13,-8.0664705563183561e-05,-877.38315672569433,0.00034011161489211491,0.00048503193403033981
-110,5175265072045585.0,0.010206912288243126,5175265072045585.0,5.0703532330798368e+17,3.753286275965132e+19,0.00033970372180702757,9.955703328080531e-07,0.00033802673078753287,2.8094904403960785e-07,1.2227157858646365e-05,9.810150913835969e-09,3.112156623445543e-12,0.00038716381230097165,-1055.9732150498494,0.00047320242583949294,0.00068374169330015163
-100,4684724411802881.0,0.010145854172036527,4684724411802881.0,4.6173780268936582e+17,5.363987423297509e+19,4.480499492864887e-05,1.0525984938053803e-06,4.127312968194019e-05,1.4596225473663199e-07,2.9373500201046454e-05,4.871844794251956e-08,8.18197953508272e-12,0.00071018920372020364,-1259.1766891809848,5.8275497936868116e-05,0.00010696786918601717
-90,4240688505588116.0,0.010085161307675873,4240688505588116.0,4.2048792044213555e+17,1.4585186511927558e+20,5.162058000962588e-05,3.3674672632148794e-06,7.521278257627273e-05,1.105245185437434e-06,4.0587525205637576e-05,1.1207276884306339e-07,6.931781998441647e-12,-0.00071698661032058917,-1487.5620411988107,9.6893145083536611e-05,0.00018277674361870706
-80,3838748695140857.0,0.010024831510211496,3838748695140857.0,3.829240113642439e+17,4.2714068796362367e+19,3.0992931300488635e-05,6.532230837848901e-06,5.0278692242500256e-05,2.1609857350334948e-07,7.158892096015279e-05,3.726753448063391e-07,3.0929378388956305e-11,0.00086829406326384135,-1445.3373032352524,9.2573626242671363e-05,0.00019775758822808718
-70,3474914265837944.5,0.0099648626077641668,3474914265837944.5,3.487167262226425e+17,3.1204813527447749e+19,2.581635476417432e-05,4.117874862187565e-06,2.9788346014747447e-05,4.0308908631769835e-07,4.292461426302907e-05,1.7793513507058378e-07,1.2938798849611993e-11,-0.0003426591178411568,-1214.101424954149,4.5705473983082767e-05,8.9301979869358577e-05
-60,3145572825401270.0,0.009905252441446924,3145572825401270.0,3.1756614422456614e+17,2.6291123010534932e+19,6.17455054907623e-06,1.438721779874197e-05,1.697303104508663e-05,7.716470703713479e-07,4.866469737407897e-06,8.181682460417505e-07,6.6295908649968704e-12,2.1805528143757012e-05,-989.31506075925643,2.9468592300650386e-05,6.4518798523161054e-05
-50,2847454438726877.5,0.0098459988652873452,2847454438726877.5,2.891991434983552e+17,5.4309802084246708e+19,1.4867410403018866e-05,1.5002857741641673e-05,7.758087303955108e-05,1.172626831789144e-05,8.572689353059104e-06,2.0868696992693003e-08,3.455412724614332e-11,2.6618787650935883e-05,-771.9719722766846,6.0095049448890003e-05,0.00012618319412282665
-40,2577599162752969.5,0.0097870997461502827,2577599162752969.5,2.6336700652988214e+17,1.9129372424161509e+19,0.0006161657766319273,5.248561525672546e-06,0.00038048272770185854,3.074003324610164e-06,0.00029676136614398274,1.2586897810251685e-05,1.076468877144604e-10,-0.00065404408955028884,-569.97631616494948,0.00075658515069830111,0.0013006160202486121
-30,2333327659041139.0,0.0097285529636610898,2333327659041139.0,2.3984323956057811e+17,4.6416762918447096e+19,0.0004806777667646367,6.724053153106535e-06,0.0002168285020105465,1.388057290157424e-05,0.0002911204981046467,5.682198775502911e-06,1.1280567238235346e-10,0.0004651047437840943,-397.64791423472775,0.00055317989665300358,0.00098756335423273224
-20,2112214592301878.7,0.0096703564101292758,2112214592301878.7,2.1842158682894317e+17,3.1229286757353538e+19,0.0020946855654280228,4.1292802244519144e-05,0.00047341640844822397,1.9758358662382708e-05,0.0017189539416904154,1.6637158239518612e-05,7.107636512226727e-10,0.0022042035467393362,-267.88208857699397,0.002572478492752407,0.0042351646998932705
-10,1912064550755230.7,0.0096125079904726251,1912064550755230.7,1.9891422224567834e+17,6.5796850222051344e+19,0.017057916568317122,0.0001367706438424321,0.002789387905067997,2.3685834951055196e-06,0.015138990348532388,4.915133831673302e-05,6.499201223218406e-09,0.017054831341834616,-182.91497799405693,0.021650166266010074,0.034243702689737858
0,1730890249255160.2,0.0095550056221417826,1730890249255160.2,1.8115010264820506e+17,1.4899337970522081e+22,0.011765625514303046,2.0311477948509182e-05,0.0010214711419394007,7.143029180956342e-05,0.01117184742633981,1.3664928530943143e-06,4.926488471644142e-09,0.011757340719019949,-134.02784357074947,0.015438224005539056,0.023624886522171949
10,1566892798770350.2,0.0094978472350452803,1566892798770350.2,1.6497346819696243e+17,9.0138264963985795e+20,0.0018453285571986555,3.5757100211752935e-05,4.70156483061146e-05,1.7667235180755803e-05,0.0019259902301200782,5.9817766668857075e-06,8.698498148309404e-10,0.0019640184983572679,-108.74076891052032,0.0025481970039193396,0.0038406958399107901
20,1418443846329636.0,0.0094410307714750067,1418443846329636.0,1.5024247676591645e+17,3.9650751955446792e+20,0.0012501325735172486,2.7716899351659663e-05,9.63499087447417e-05,1.8841935776163499e-06,0.0011589518658183806,5.833033959845579e-06,5.327049626244437e-10,0.0011664661881457391,-96.764588505580562,0.0016531865486947316,0.0025232298116580152
30,1284069408110954.5,0.0093845541860321409,1284069408110954.5,1.3682796035448846e+17,1.108223786497169e+21,0.001049014909760615,4.495674534088501e-06,2.3537922970717773e-06,6.650819501019534e-06,0.0010693689218896907,5.240161954134237e-06,4.985216834707457e-10,-0.0010750188917842296,-91.582484042722129,0.0014560500820875865,0.0021383198967138083
40,1162435235162843.2,0.0093284154455535034,1162435235162843.2,1.2461229261792059e+17,8.0843455019897874e+20,0.0003564777116054074,8.187068773479744e-06,2.5242251467716414e-05,8.302668293387605e-06,0.0003221756114726304,8.946462003223132e-06,1.5323328406826122e-10,-0.00032282225574350678,-89.646669296998638,0.00047079733480981709,0.00073101073721623807
50,1052333566464031.6,0.0092726125290383769,1052333566464031.6,1.1348835758730498e+17,1.0981400042888074e+22,0.00015983621239001877,1.6232851772768342e-06,1.1850360351672862e-05,3.1643937766622637e-06,0.0001524305607745191,3.8035311717976583e-06,7.335187547208453e-11,-0.00015500821047304865,-89.190631233206446,0.00021805249037686964,0.00034404802335154597
60,952671137800685.0,0.0092171434275757393,952671137800685.0,1.0335861053767427e+17,7.0702984577110363e+20,0.00023972383931436525,8.234145414842686e-06,2.706830205993077e-05,7.943653595968853e-07,0.00024184508129110327,4.891286681463214e-06,1.1683093670289153e-10,0.00024382892966071914,-89.38048138216746,0.00032377686383162099,0.00051754282434534672
70,862458327409066.12,0.0091620061442719471,862458327409066.12,94134222770443344.0,1.7998452405138023e+21,9.334568857255476e-05,2.5968141654786336e-06,3.152152680740983e-05,1.3216846937407281e-05,7.533054167652153e-05,7.181377834619695e-07,3.74383690883231e-11,-7.7561815991771858e-05,-89.83698689134448,0.00012432932679535058,0.00022331439448014764
80,780799330617600.5,0.0091071986941788467,780799330617600.5,85734302812199872.0,2.0675567482212503e+22,0.00040789779049532626,1.968657494133552e-06,3.737264518122174e-05,5.344367118541304e-06,0.000397340908819821,5.0051415292351464e-06,1.9469550093056162e-10,-0.00041253186437587556,-90.392346579188157,0.00052420554429240664,0.00082535080896633357
90,706883265938610.5,0.0090527191042223138,706883265938610.5,78085187201811040.0,1.5077386074919669e+20,0.0004978641523507576,6.247955900928748e-06,3.898064085205988e-05,1.1154477103300642e-06,0.0004933283098580432,6.482875960500678e-06,2.332932838170008e-10,-0.00050137630884274011,-90.974737246730868,0.00065536330130225957,0.0010309824638383479
100,639976124307759.0,0.0089985654131312289,639976124307759.0,71119794647918952.0,8.655532134299956e+19,0.0032121897746719696,3.0904467994391505e-05,5.2846271017870095e-05,3.837654121367773e-06,0.0030618320010944444,1.2334885468590073e-06,1.5164638498857646e-09,0.0032035301002810803,-91.554803829235624,0.0044153455098133497,0.0065679534691079631
"{'distance': [0.483, 0.496, 0.511, 0.729, 0.812], 'solute_6': [17.76, -0.74, 11.62, -10.68, 17.55], 'solute_5': [13.96, -16.52, 2.63, -6.77, 8.44], 'solute_4': [13.2, -14.21, 14.27, -1.91, 8.95], 'solute_3': [12.4, -5.77, 1.52, -9.82, 8.87], 'solute_2': [7.52, -19.29, 14.8, -4.1, 13.5], 'solute_1': [10.24, -5.56, 4.28, -1.82, 10.11]}","{'solute_5e': '27.0 uM', 'solute_6e': '362.0 mM', 'solute_6i': '336.0 mM', 'solute_5i': '194.0 nM', 'solute_4i': '387.0 uM', 'solute_3i': '459.0 nM', 'solute_1e': '453.0 mM', 'solute_2i': '307.0 mM', 'solute_3e': '207.0 nM', 'solute_1i': '427.0 nM', 'solute_2e': '177.0 uM', 'solute_4e': '164.0 mM'}"
voltage,"current, barrier 0","current, barrier 1","current, barrier 2",solute_6 transport over barrier 0,solute_6 transport over barrier 1,solute_6 transport over barrier 2,solute_5 transport over barrier 0,solute_5 transport over barrier 1,solute_5 transport over barrier 2,solute_4 transport over barrier 0,solute_4 transport over barrier 1,solute_4 transport over barrier 2,solute_3 transport over barrier 0,solute_3 transport over barrier 1,solute_3 transport over barrier 2,solute_2 transport over barrier 0,solute_2 transport over barrier 1,solute_2 transport over barrier 2,solute_1 transport over barrier 0,solute_1 transport over barrier 1,solute_1 transport over barrier 2
-150,-2.132065533461641e-05,-2.132065495825637e-05,-2.1320654360719692e-05,-0.6534144002131779,-0.6534293113139111,-0.653429325465595,-0.00015806860975177653,-0.00015941478327046062,-0.0001594148271379936,-3.365742782439611,-3.36572693110633,-3.3657252827488264,-4.2693300330404026e-06,-3.7644417656094822e-06,-3.7653383415658936e-06,6.990579535570696e-06,6.929961292664541e-06,5.929730832576752e-06,-60.51505250324499,-60.5150525404294,-60.51505262573349
-140,-2.783995292043067e-05,-2.783995361284792e-05,-2.7839953607212196e-05,-0.7131033596545073,-0.7131040333580392,-0.7131040182750894,-0.00032214119599886765,-0.00031829496364415004,-0.0003182948871511826,-3.298170164443036,-3.298169907060358,-3.2981701631833857,-5.656501080994041e-06,-9.189066275054544e-06,-9.196426923097079e-06,1.694523827100447e-05,1.700625593268613e-05,1.7605721950531006e-05,-80.87417028718482,-80.87417024486588,-80.87417015812673
-130,-3.6760843267659816e-05,-3.6760843560423296e-05,-3.676084624903258e-05,-0.780743793030986,-0.780199945798208,-0.7802004436839525,-0.0006572720111141438,-0.0006566623769500049,-0.0006566624498560714,-3.22939240769756,-3.2299389329206556,-3.2299404912610044,-7.521318290484109e-06,-4.047224415653467e-06,-4.0532942549020845e-06,4.020540995908206e-05,3.874285108497623e-05,2.8017209842801094e-05,-108.71869708392569,-108.71869702831543,-108.71869696646414
-120,-4.897335424978228e-05,-4.897335393821001e-05,-4.8973354461387854e-05,-0.8570819693682381,-0.8568394865977913,-0.8568396313035009,-0.0013413342784757741,-0.0013417593355515526,-0.001341759326678016,-3.15969721213537,-3.159938532288724,-3.159938902619615,-1.0029637444949847e-05,-1.0432474927820462e-05,-1.0430303497344084e-05,8.484873898506606e-05,8.449175126006632e-05,8.273113053292036e-05,-146.82486165003866,-146.82486162765662,-146.8248616098569
-110,-6.564604105284266e-05,-6.564604227527616e-05,-6.564603916311954e-05,-0.9425744394121267,-0.9429141431339337,-0.9429127498447087,-0.002734516502145258,-0.0027335210165799983,-0.00273352093181245,-3.086538692067734,-3.086202660167816,-3.0862006653369463,-1.340168956564039e-05,-1.3682052259378037e-05,-1.3682638609679998e-05,0.00017614494005080417,0.00017911459471968232,0.00018837209790945053,-198.84280629471868,-198.84280630452884,-198.84280630156877
-100,-8.822851342183556e-05,-8.82285162005968e-05,-8.822850801861727e-05,-1.0368831454714353,-1.036927950466364,-1.0369227318033154,-0.005558777605974916,-0.0055598302044687214,-0.005559829966870211,-3.0051934928396804,-3.00515745080009,-3.0051522197099985,-1.791381032901682e-05,-1.776784807428019e-05,-1.778931797957739e-05,0.00036283274583226444,0.00037245790372639225,0.0003922062460333109,-269.3041612344314,-269.3041611950283,-269.3041611857129
-90,-0.00011829056264425117,-0.00011829055571246917,-0.00011829055873652041,-1.1377681950180403,-1.1378091838099682,-1.13781981559805,-0.011233621822023965,-0.011236988854459213,-0.01123698928928718,-2.9103825539577883,-2.910319396432004,-2.910307341175212,-2.3882553865808495e-05,-2.4896310824979362e-05,-2.498779905124593e-05,0.0007824192506689087,0.0007648012914176611,0.0007418317254632711,-363.1190370152035,-363.1190371272763,-363.1190371243529
-80,-0.0001569018831187496,-0.0001569018976157734,-0.00015690186668639502,-1.2389253098429833,-1.238920235928473,-1.2388943169116828,-0.022447540323905998,-0.02244101015296537,-0.02244100809306815,-2.790159376446354,-2.7902096551385966,-2.7901820839906577,-3.1581526829123005e-05,-3.1365428255619656e-05,-3.141050873978202e-05,0.0015224336939212435,0.0015613296201234747,0.0015940226148813963,-483.6521307669027,-483.6521311355243,-483.65213113957805
