"{'distance': [0.067, 0.186, 0.566, 0.713, 0.911], 'solute_6': [7.34, -2.82, 6.46, -1.94, 7.51], 'solute_5': [6.54, -7.31, 1.57, -6.63, 6.0], 'solute_4': [7.32, -2.85, 5.16, -2.73, 6.06], 'solute_3': [6.13, -5.21, 5.03, -7.38, 7.47], 'solute_2': [6.58, -4.84, 7.36, -5.37, 6.32], 'solute_1': [6.64, -3.6, 3.99, -7.83, 6.32]}","{'solute_5e': '137.0 mM', 'solute_6e': '143.0 uM', 'solute_6i': '136.0 uM', 'solute_5i': '3.0 uM', 'solute_4i': '68.0 uM', 'solute_3i': '96.0 mM', 'solute_1e': '138.0 mM', 'solute_2i': '60.0 uM', 'solute_3e': '34.0 uM', 'solute_1i': '108.0 mM', 'solute_2e': '102.0 uM', 'solute_4e': '43.0 mM'}"
voltage,current,solute_6,solute_5,solute_4,solute_3,solute_2,solute_1
-150,-3390.8869599988975,-1535701.2013967189,-3577125508.9652877,-471631265.60219556,-477365.9025689057,-1532763.5184054612,-3004054982.720526
-140,-3051.335000158874,-1355547.8426132393,-3271687430.143677,-416527932.1788103,-431265.0291459385,-1371089.1171512199,-2658382927.845865
-130,-2722.734325656811,-1178284.901202687,-2982365801.1972847,-362357466.03002703,-380941.3208222189,-1196117.2020345049,-2318455632.4442763
-120,-2402.976212074372,-1004252.5188594669,-2704356057.1845713,-309239201.7877747,-326557.807201144,-1006737.7137853672,-1984570981.122531
-110,-2090.864615321999,-835002.0950739123,-2431947451.3084774,-257670422.86040103,-268721.8819440381,-806239.5338379645,-1659449843.1073952
-100,-1785.995539781464,-673041.0706815628,-2158721917.014868,-208443410.5137526,-208335.795098321,-604682.2076556926,-1347867882.3531666
-90,-1488.668035993126,-521390.3531999709,-1878426663.9567184,-162492704.59571502,-146024.08059302162,-418317.1339579755,-1055751530.1615638
-80,-1200.4482321847102,-383373.3392046494,-1586945570.8685398,-120798214.76226199,-81002.95625969706,-263881.67703256744,-789481471.5372683
-70,-925.7280059456682,-262815.8726715953,-1285480875.9429076,-84410092.66622244,-9480.278001152386,-150776.85836414088,-555934809.5667052
-60,-673.291442083592,-164051.9643291614,-983844803.142649,-54444975.87808871,76883.88406136175,-77759.74319005449,-362459287.3255872
-50,-455.5222133391842,-90700.76284811008,-700920309.566666,-31789634.387828752,191327.84754789472,-36122.676089556204,-215058885.77567056
-40,-283.73714985401324,-43246.135337717904,-459199156.7888194,-16529282.001355404,349920.6159765853,-15135.57716882132,-114715950.73359661
-30,-162.04614814420154,-17487.63454559197,-274734258.7165544,-7600330.4448580025,567251.9816185639,-5784.105749139524,-55007824.75247066
-20,-84.99000589816332,-6021.679221974713,-149861343.41093257,-3128662.8905406147,852066.9815761606,-2071.1254829375557,-24128074.058437355
-10,-40.932241979950994,-1763.7261127977142,-74576534.24629702,-1207816.4679174495,1204616.6634349385,-713.5281163884666,-9783991.583444636
0,-17.52960761706716,-244.99000684027556,-33812997.28770382,-472987.76137692545,1615303.1044042532,-207.86473960575222,-2726488.5928935865
10,-5.132390930599716,593.8215467627209,-13887435.062615685,-196906.7934920176,2065367.7804327256,37.635454044043826,2716134.8272689814
20,2.5204645385158595,1629.6860382029308,-5120173.109297402,-83348.30542571911,2535043.018160529,237.52622654806785,9601131.311713543
30,8.86889856900166,3366.2491917931466,-1682883.7677627373,-31364.761461511618,3023364.3205478564,478.667331168039,19156579.82442902
40,15.32179758706036,6115.48494222357,-493763.9587598145,-4879.130285456413,3568749.377071964,816.0772467108476,31182961.3654505
50,22.09730622324116,9932.093392955274,-130362.8664932102,11582.360933362743,4246894.17649773,1309.5966693433872,44670925.36055092
60,29.02414735289469,14657.420812740838,-30459.70971111313,24863.534506448224,5140871.713276508,2046.9403240151833,58667434.51957707
70,36.041439684742656,20103.447175907302,-4845.06467664364,37709.630994386076,6308182.738003231,3168.399959617416,72834784.07715861
80,43.32546869665331,26200.818174457407,1699.7981799517293,51216.11980827793,7767445.98829564,4895.3112996317905,87477178.29419093
90,51.21631211056468,33025.40338824683,3667.748938465411,66004.12902754024,9504339.255619464,7556.954801174419,103291592.5927534
100,60.11735790237212,40751.5374348821,4633.879233798289,82628.32722482042,11485388.032904075,11597.569750905883,121123927.32592067
"{'distance': [0.067, 0.186, 0.566, 0.713, 0.911], 'solute_6': [7.34, -2.82, 6.46, -1.94, 7.51], 'solute_5': [6.54, -7.31, 1.57, -6.63, 6.0], 'solute_4': [7.32, -2.85, 5.16, -2.73, 6.06], 'solute_3': [6.13, -5.21, 5.03, -7.38, 7.47], 'solute_2': [6.58, -4.84, 7.36, -5.37, 6.32], 'solute_1': [6.64, -3.6, 3.99, -7.83, 6.32]}","{'solute_5e': '137.0 mM', 'solute_6e': '143.0 uM', 'solute_6i': '136.0 uM', 'solute_5i': '3.0 uM', 'solute_4i': '68.0 uM', 'solute_3i': '96.0 mM', 'solute_1e': '138.0 mM', 'solute_2i': '60.0 uM', 'solute_3e': '34.0 uM', 'solute_1i': '108.0 mM', 'solute_2e': '102.0 uM', 'solute_4e': '43.0 mM'}"
voltage,largest element,smallest element,element difference,element ratio difference,condition number,transport error solute_6,transport error solute_5,transport error solute_4,transport error solute_3,transport error solute_2,transport error solute_1,current errors,smallest eigenvalue,second smallest eigenvalue,sum absolute errors,sum squared errors
-150,506429998464555.31,9139.9630138168086,506429998455415.37,55408320328.976074,1.5460138710695404e+18,0.008484187303110957,0.010497093200683594,0.002162039279937744,0.0026389704435132444,0.0007376773282885551,0.017839431762695312,1.0942585504380986e-08,-0.022036941885035476,-122762140.5916809,0.029012987172065654,0.064297549848554347
-140,399485270188665.62,10170.143690596267,399485270178495.5,39280199212.725594,3.0697545684772123e+19,0.024251634487882257,0.01414346694946289,0.003822624683380127,0.0018886711332015693,0.010901917237788439,0.021732330322265625,1.2955297279404476e-08,0.017883807420730591,-126103606.47523424,0.031731103762906623,0.080153454857034012
-130,315181381738217.69,11316.437772343057,315181381726901.25,27851642723.517551,1.125163311392634e+18,0.009430327452719212,0.009113788604736328,0.009103715419769287,0.002440498676151037,0.004213303793221712,0.00872802734375,5.4119482228998095e-09,-0.021600089497031544,-129834221.90424405,0.022494763143209577,0.064013895202369775
-120,248733881441168.72,12591.932597149429,248733881428576.78,19753431772.457016,2.6579424162980166e+17,0.0028072427958250046,0.010256290435791016,0.006820082664489746,0.0013183585251681507,0.001667873002588749,0.0067675113677978516,7.799826562404633e-09,0.012440144948290774,-134003310.28959768,0.015248888823388838,0.042132328071925129
-110,196370707376405.5,14011.190599100104,196370707362394.31,14015276288.44174,7.7766308237238003e+17,0.004069802933372557,0.0005335807800292969,0.01074230670928955,0.0017485821153968573,0.0025075430748984218,0.003917694091796875,4.412868293002248e-09,0.0086144316381203279,-138927170.5004259,0.013047010210950442,0.03273559711141738
-100,155118171852028.44,15590.41556883434,155118171836438.03,9949585446.7223969,3.4202161324043277e+17,0.0014924007700756192,0.0041332244873046875,0.01043972373008728,0.0018162832711823285,0.005020189448259771,0.011504173278808594,3.930153980036266e-09,0.014100635485092657,-140939355.99231231,0.016189534047033403,0.042385329103444058
-90,122632219607648.12,17347.637653616908,122632219590300.48,7069101975.5119123,2.2179087284253914e+17,0.002235296880826354,0.004271030426025391,0.0023724138736724854,0.0008388404094148427,0.0012970679090358317,0.0027772188186645508,1.8167156667914242e-09,0.0037615340293147385,-132359557.68130703,0.0052588703194222479,0.01575092798181088
-80,97065387206277.5,19302.919209079671,97065387186974.578,5028534086.2132425,1.1531443433106401e+18,0.0071562708471901715,0.0036001205444335938,0.012449666857719421,0.0014410727890208364,0.00022330088540911674,0.005644559860229492,2.0042989490320906e-09,0.0059158107838365032,-127927598.04812022,0.016907040756240513,0.041045440371922037
-70,76961915813186.734,21478.583852860851,76961915791708.156,3583193209.5902939,3.1370288424422624e+17,0.010797703289426863,0.016341686248779297,0.01273585855960846,0.007160979439504445,0.00013323104940354824,0.007739663124084473,8.035385690163821e-09,0.023289484761460272,-126883590.09459025,0.020476779691413018,0.051828009177963708
-60,61175066144722.047,23899.471335267022,61175066120822.578,2559682818.3579798,1.6444175700678918e+17,0.0010768739448394626,0.007673025131225586,0.008067257702350616,0.0018797592492774129,0.0003729902091436088,0.0033701062202453613,1.947000782820396e-09,-0.0048970737537198427,-130022069.53671663,0.010211049346157682,0.025209039623144802
-50,48801943362147.5,26593.221136838165,48801943335554.281,1835127196.9285729,4.3525395341161312e+17,0.011685208868584596,0.009705305099487305,0.001403510570526123,0.008223423006711528,0.00039988024218473583,0.004176110029220581,5.7032707445614506e-09,0.018018394203934779,-138124337.67428231,0.015842906151924831,0.036850701282225895
-40,39132132487520.742,29590.588030673476,39132132457930.156,1322452005.5821986,1.0835497403265312e+18,0.005055443893070333,0.00420302152633667,0.00039404071867465973,0.0028474470018409193,2.6561872800812125e-05,0.0008548945188522339,1.7888623915496282e-09,0.0051228961875312848,-151214213.02651566,0.0059743951174992243,0.011740121453304386
-30,31607227834691.957,32925.793212320204,31607227801766.164,959953421.04211283,1.1927883777724917e+17,0.002916755147452932,0.0021952390670776367,0.0002444852143526077,0.002137941657565534,1.3839797247783281e-05,0.00037741661071777344,7.375149380095536e-10,0.0033819136149170399,-166893033.6280615,0.0035660062589290293,0.0065661190005322778
-20,25788957377129.477,36636.915006105657,25788957340492.562,703906357.09452248,1.015040587828272e+17,1.6863974451553077e-05,0.00035497546195983887,0.0002681240439414978,1.520558726042509e-05,3.609534178394824e-05,0.0002213791012763977,9.748646334628575e-11,-0.00011009641044028522,-178266519.9163675,0.00051267272450360017,0.0012554171341017106
-10,21334089926113.309,40766.32360864005,21334089885346.984,523326315.39018011,2.2326390736336003e+18,0.00010462526938681549,0.00021122395992279053,0.00016106758266687393,0.00025004916824400425,4.6531218686141074e-05,0.0004238896071910858,2.0055068716828828e-10,-0.00034990333580990136,-175338817.52669865,0.00056178466935971605,0.0014711921284306095
0,17974697076463.84,45361.164832994364,17974697031102.676,396257396.44563931,1.6161960509147825e+18,0.0017426318154321052,0.002460867166519165,0.0014665515627712011,0.002476232126355171,2.7455651434138417e-05,0.0005367696285247803,5.543547842989938e-10,-0.0034211481821661187,-154250114.1677261,0.0031247974957258808,0.0067482387323142823
10,15502644864552.797,50473.898376501806,15502644814078.898,307141817.12126428,1.8885477549291922e+18,0.0008012315156520344,0.00041033700108528137,0.00076440314296633,0.0008361989166587591,4.962927098972614e-05,0.0006563598290085793,4.7333692521078774e-11,0.0012623024818516819,-124857673.13093737,0.0013450195742804609,0.0036744802564647738
20,13757429145293.422,56162.896757632931,13757429089130.525,244955832.75668007,1.3095308557972286e+17,0.00017885607667267323,0.00044699106365442276,0.000578013583435677,0.0004432676360011101,1.7391685105394572e-05,0.0007567442953586578,2.1450219378493784e-10,0.00033211401108704301,-98318538.018212318,0.0011058602880321031,0.0028608608303609673
30,12616657373388.613,62493.111760057967,12616657310895.502,201888768.50668302,1.1126556877233306e+17,0.000571425051020924,0.00038449279963970184,0.0003141617780784145,0.0010325121693313122,6.19569361788308e-05,0.0011021792888641357,3.318181285294486e-10,-0.001596788667078898,-78892925.488812715,0.0018277451472331735,0.0048544995902309873
40,11988628451200.012,69536.815992745687,11988628381663.195,172406922.57825992,1.8551650406691376e+17,0.0003801275006480864,0.0005412424798123538,0.0004760508454637602,0.0005593928508460522,3.192473343460733e-05,0.00033412128686904907,4.232401096260219e-10,-0.0008729510135473327,-66312918.938344918,0.0010598785070484974,0.0030802928415469832
50,11806580008133.734,77374.428032554235,11806579930759.307,152590207.23444027,1.7861272056108678e+17,0.0006604840928048361,0.001147434115409851,0.00042462519195396453,0.0006824508309364319,0.00014762088540010154,0.0005190595984458923,6.530385121550353e-10,-0.0016693674848860061,-58979990.559813194,0.0013723900057789015,0.0045011884509000843
60,12024265553944.855,86095.430570037541,12024265467849.426,139662064.22724453,4.805072294760704e+17,0.0004255550702509936,0.0019317425758345053,0.004127759966650046,0.0026419907808303833,7.475974143744679e-05,0.004109188914299011,5.205187392220978e-10,0.0048862966786831531,-55382215.963079669,0.0061834989560078345,0.014935911999239493
70,12612597649566.592,95799.392041017476,12612597553767.199,131656343.33218296,1.7732242413335856e+17,8.273524508695118e-05,0.0010279658090439625,0.00035077422944596037,0.00048019085079431534,0.00014404774992726743,0.0005400180816650391,2.3294433049159124e-10,0.0011351955842918006,-54438802.000872895,0.0012244677493024481,0.0032358069263566103
80,13557151708973.76,106597.10340797663,13557151602376.656,127181239.22267181,60278748686982744.0,0.00027018499531550333,0.0006636462007918453,0.0006917497157701291,1.7160549759864807e-05,0.00020118728207307868,0.0009012371301651001,2.9609736884594895e-10,7.0689617241749683e-05,-55462030.291777521,0.0013578084626198253,0.0037532285384181963
90,14856371559858.266,118611.84307000304,14856371441246.422,125252008.36049941,1.5297429087198902e+17,0.0005154343380127102,0.0009307525115218596,6.556531297974288e-05,0.00021096132695674896,2.760710776783526e-05,0.0016281753778457642,2.5993784902311745e-10,0.00087201914491358496,-58038840.836896516,0.0015699812782576949,0.0038371556295846432
100,16520355040815.605,131980.78434287236,16520354908834.82,125172426.60035601,2.9184840537953222e+17,0.0008697119337739423,0.0005401580565376207,0.0010495189781067893,0.00013885460793972015,0.0004291995574021712,0.0014895051717758179,1.1299405855424993e-09,0.001948685343951062,-61926375.759270303,0.0021813387278342483,0.0063239264778691684
"{'distance': [0.067, 0.186, 0.566, 0.713, 0.911], 'solute_6': [7.34, -2.82, 6.46, -1.94, 7.51], 'solute_5': [6.54, -7.31, 1.57, -6.63, 6.0], 'solute_4': [7.32, -2.85, 5.16, -2.73, 6.06], 'solute_3': [6.13, -5.21, 5.03, -7.38, 7.47], 'solute_2': [6.58, -4.84, 7.36, -5.37, 6.32], 'solute_1': [6.64, -3.6, 3.99, -7.83, 6.32]}","{'solute_5e': '137.0 mM', 'solute_6e': '143.0 uM', 'solute_6i': '136.0 uM', 'solute_5i': '3.0 uM', 'solute_4i': '68.0 uM', 'solute_3i': '96.0 mM', 'solute_1e': '138.0 mM', 'solute_2i': '60.0 uM', 'solute_3e': '34.0 uM', 'solute_1i': '108.0 mM', 'solute_2e': '102.0 uM', 'solute_4e': '43.0 mM'}"
voltage,"current, barrier 0","current, barrier 1","current, barrier 2",solute_6 transport over barrier 0,solute_6 transport over barrier 1,solute_6 transport over barrier 2,solute_5 transport over barrier 0,solute_5 transport over barrier 1,solute_5 transport over barrier 2,solute_4 transport over barrier 0,solute_4 transport over barrier 1,solute_4 transport over barrier 2,solute_3 transport over barrier 0,solute_3 transport over barrier 1,solute_3 transport over barrier 2,solute_2 transport over barrier 0,solute_2 transport over barrier 1,solute_2 transport over barrier 2,solute_1 transport over barrier 0,solute_1 transport over barrier 1,solute_1 transport over barrier 2
-150,-3390.8869599996788,-3390.8869599988975,-3390.88696000984,-1535701.2085901874,-1535701.2013967189,-1535701.200106,-3577125508.9600906,-3577125508.9652877,-3577125508.9705877,-471631265.6000335,-471631265.60219556,-471631265.6021135,-477365.90285245405,-477365.9025689057,-477365.9052078761,-1532763.5191431385,-1532763.5184054612,-1532763.5185893753,-3004054982.721732,-3004054982.720526,-3004054982.7383657
-140,-3051.3350001481604,-3051.335000158874,-3051.335000145919,-1355547.8204885048,-1355547.8426132393,-1355547.8447401393,-3271687430.1477265,-3271687430.143677,-3271687430.133583,-416527932.1749877,-416527932.1788103,-416527932.1751609,-431265.02870068315,-431265.0291459385,-431265.0272572674,-1371089.1067315452,-1371089.1171512199,-1371089.1176334624,-2658382927.852565,-2658382927.845865,-2658382927.8308325
-130,-2722.734325651399,-2722.734325656811,-2722.7343256562845,-1178284.9106330145,-1178284.901202687,-1178284.901427159,-2982365801.188171,-2982365801.1972847,-2982365801.1952534,-362357466.0209233,-362357466.03002703,-362357466.0211603,-380941.3208656504,-380941.3208222189,-380941.3232627176,-1196117.1978776818,-1196117.2020345049,-1196117.2020909856,-2318455632.4445596,-2318455632.4442763,-2318455632.4530044
-120,-2402.976212081727,-2402.976212074372,-2402.976212082172,-1004252.5166727544,-1004252.5188594669,-1004252.5194799972,-2704356057.1948276,-2704356057.1845713,-2704356057.1877265,-309239201.7893547,-309239201.7877747,-309239201.79459476,-326557.80700045306,-326557.807201144,-326557.80588278547,-1006737.7122162797,-1006737.7137853672,-1006737.7138841527,-1984570981.1292984,-1984570981.122531,-1984570981.128537
-110,-2090.8646153177733,-2090.864615321999,-2090.864615317586,-835002.0978628367,-835002.0950739123,-835002.0937930337,-2431947451.3084416,-2431947451.3084774,-2431947451.307944,-257670422.84965873,-257670422.86040103,-257670422.85729733,-268721.8825487809,-268721.8819440381,-268721.88080019876,-806239.5363455076,-806239.5338379645,-806239.533890236,-1659449843.1047192,-1659449843.1073952,-1659449843.1034775
-100,-1785.9955397780836,-1785.995539781464,-1785.9955397775338,-673041.0721739635,-673041.0706815628,-673041.0707030735,-2158721917.011954,-2158721917.014868,-2158721917.0107346,-208443410.5033129,-208443410.5137526,-208443410.5136217,-208335.79511386092,-208335.795098321,-208335.79329757765,-604682.2027120934,-604682.2076556926,-604682.2077322828,-1347867882.3612845,-1347867882.3531666,-1347867882.3497803
-90,-1488.668035992101,-1488.668035993126,-1488.6680359913094,-521390.350964674,-521390.3531999709,-521390.35315567587,-1878426663.9588594,-1878426663.9567184,-1878426663.9545884,-162492704.59735763,-162492704.59571502,-162492704.59498522,-146024.0804763388,-146024.08059302162,-146024.0797541812,-418317.1326609076,-418317.1339579755,-418317.13395459985,-1055751530.1587865,-1055751530.1615638,-1055751530.160969
-80,-1200.4482321827556,-1200.4482321847102,-1200.4482321827059,-383373.33204837854,-383373.3392046494,-383373.33906752337,-1586945570.8649397,-1586945570.8685398,-1586945570.8662262,-120798214.77471165,-120798214.76226199,-120798214.76480217,-81002.95635890972,-81002.95625969706,-81002.95491783693,-263881.67680926656,-263881.67703256744,-263881.67695808795,-789481471.5316237,-789481471.5372683,-789481471.5335052
-70,-925.7280059389209,-925.7280059456682,-925.7280059376328,-262815.861873892,-262815.8726715953,-262815.8723733722,-1285480875.9517765,-1285480875.9429076,-1285480875.9354348,-84410092.6544799,-84410092.66622244,-84410092.66721576,-9480.27856663533,-9480.278001152386,-9480.27140565589,-150776.85849255556,-150776.85836414088,-150776.8583593245,-555934809.5660636,-555934809.5667052,-555934809.5589656
-60,-673.291442081645,-673.291442083592,-673.2914420824545,-164051.9638641699,-164051.9643291614,-164051.96494104384,-983844803.1354808,-983844803.142649,-983844803.1431538,-54444975.88492644,-54444975.87808871,-54444975.87685918,76883.8844631986,76883.88406136175,76883.88258343935,-77759.7435630447,-77759.74319005449,-77759.74320709254,-362459287.3222171,-362459287.3255872,-362459287.32282966
-50,-455.5222133346225,-455.5222133391842,-455.5222133334809,-90700.75143057521,-90700.76284811008,-90700.76311578408,-700920309.5709479,-700920309.566666,-700920309.5612426,-31789634.38662252,-31789634.387828752,-31789634.38802603,191327.84749270117,191327.84754789472,191327.85571612418,-36122.67647499172,-36122.676089556204,-36122.67607511148,-215058885.77424538,-215058885.77567056,-215058885.77149445
