"{'distance': [0.201, 0.409, 0.741, 0.754, 0.796], 'solute_6': [7.4, -10.16, 11.58, -3.07, 11.23], 'solute_5': [6.73, -3.38, 0.81, -0.74, 7.8], 'solute_4': [7.25, -5.98, 1.78, -6.11, 7.21], 'solute_3': [8.26, -8.42, 10.77, -5.76, 11.26], 'solute_2': [6.13, -1.63, 10.47, -6.52, 7.89], 'solute_1': [7.47, -6.2, 11.05, -9.01, 8.01]}","{'solute_5e': '123.0 mM', 'solute_6e': '97.0 uM', 'solute_6i': '131.0 uM', 'solute_5i': '33.0 uM', 'solute_4i': '117.0 uM', 'solute_3i': '111.0 uM', 'solute_1e': '102.0 mM', 'solute_2i': '84.0 mM', 'solute_3e': '55.0 mM', 'solute_1i': '21.0 uM', 'solute_2e': '58.0 uM', 'solute_4e': '27.0 mM'}"
voltage,current,solute_6,solute_5,solute_4,solute_3,solute_2,solute_1
-150,-2.379119406092781,-154.09101392159104,-4871909.523353994,-1158793.3143571082,-1311825.5082217008,-2797.6235894728984,-160126.59224353085
-140,-1.882624979386257,-99.97184367454574,-3839041.7717333436,-939194.335793907,-1041346.2773052868,-2040.2851783128517,-108371.16370426954
-130,-1.540214269202907,-65.65697595137438,-3154717.9330619574,-795899.5977143631,-817176.4052581323,-1506.5476312881458,-75654.65660959082
-120,-1.3324420413873268,-44.677663995591175,-2769198.4114313126,-725097.9669328849,-635176.015148923,-1139.9508288281204,-56096.684759016876
-110,-1.2386148598517874,-32.236093390366655,-2628629.3478868008,-723834.0920698403,-489960.2572358118,-878.4427827755514,-45041.76018453947
-100,-1.2383178646224522,-25.03148369326883,-2678343.7744010687,-790658.280042313,-375658.8405964537,-660.5991318469696,-39156.35359648982
-90,-1.3119670224380284,-20.914161021217506,-2863869.968540311,-925766.3778253229,-286587.3454785489,-428.65540901826904,-36231.33539018213
-80,-1.4399171398845934,-18.530677762843084,-3128534.308288574,-1130350.7737025467,-217663.9498325933,-123.09779962841162,-34884.02583456079
-70,-1.6003050767761493,-17.034592424054424,-3408350.5325068235,-1404960.3276153966,-164583.68874902584,333.6304463599514,-34281.083465103155
-60,-1.766599121787,-15.877114559020592,-3627357.6518963575,-1746634.3157422757,-123829.19849638182,1063.5573527403642,-33929.091257222935
-50,-1.9071142828693652,-14.665024406262512,-3700665.9419817924,-2144524.0331662353,-92595.60034008698,2268.8920255088724,-33535.50656077646
-40,-1.98956487016087,-13.06825825282338,-3555092.538426876,-2573661.9993048925,-68683.01269978509,4277.58135389585,-32923.36163181213
-30,-1.9905271145874879,-10.764706695000836,-3167356.572726488,-2986491.5104079396,-50387.01478786525,7597.363753419099,-31976.654517905852
-20,-1.9014975975525863,-7.419167155102052,-2592721.488972664,-3303302.028652074,-36402.16729166981,12967.48303097777,-30599.257914585352
-10,-1.722808464229196,-2.7070110202155995,-1946817.0076395273,-3411519.0088805817,-25743.814751129605,21372.72547545341,-28693.345000381098
0,-1.4560459265041936,3.5929265431697814,-1347127.355834961,-3200500.395839665,-17683.995902249564,33937.46075280082,-26180.902575482403
10,-1.116499696940606,11.425762302332616,-865134.5802674294,-2647940.2772614583,-11690.596975442202,51586.478079313856,-23064.814613931467
20,-0.7531383540455856,20.281128503356634,-518851.91748696566,-1889150.1285743732,-7363.163515347181,74475.32487318023,-19478.676800054225
30,-0.4336289346348637,29.18380359601739,-291790.7127330601,-1150918.791619558,-4372.487587714242,101509.72351882448,-15681.99174749536
40,-0.20113549182407678,36.975162734887256,-154355.22428107262,-595449.4325304544,-2419.192427245719,130443.31690348125,-12003.325124341858
50,-0.0566748037431917,42.75091218355813,-77078.33669053018,-252888.9218980763,-1222.20465813514,158653.99855381297,-8747.125790943594
60,0.02308688502783904,46.15145337937714,-36433.0057361573,-72031.81046058005,-533.4771195002671,184082.4645133814,-6101.603536561789
70,0.06371803638161727,47.34171171416428,-16235.248852517456,11577.858997331467,-158.50848663002648,205715.4881724682,-4105.969677530029
80,0.08341080321624586,46.785791093553335,-6642.3320570569485,44776.61587646301,36.76578749360047,223482.47598216118,-2687.1502261073947
90,0.09270135410212206,45.01412178792146,-2242.2928574951366,54410.30346657231,134.85617933203454,237865.8298292678,-1722.2693913364158
100,0.09703696094457659,42.48666410395955,-280.6579977241345,53944.12313782686,182.23763541629404,249538.36270204862,-1086.7665294976002
"{'distance': [0.201, 0.409, 0.741, 0.754, 0.796], 'solute_6': [7.4, -10.16, 11.58, -3.07, 11.23], 'solute_5': [6.73, -3.38, 0.81, -0.74, 7.8], 'solute_4': [7.25, -5.98, 1.78, -6.11, 7.21], 'solute_3': [8.26, -8.42, 10.77, -5.76, 11.26], 'solute_2': [6.13, -1.63, 10.47, -6.52, 7.89], 'solute_1': [7.47, -6.2, 11.05, -9.01, 8.01]}","{'solute_5e': '123.0 mM', 'solute_6e': '97.0 uM', 'solute_6i': '131.0 uM', 'solute_5i': '33.0 uM', 'solute_4i': '117.0 uM', 'solute_3i': '111.0 uM', 'solute_1e': '102.0 mM', 'solute_2i': '84.0 mM', 'solute_3e': '55.0 mM', 'solute_1i': '21.0 uM', 'solute_2e': '58.0 uM', 'solute_4e': '27.0 mM'}"
voltage,largest element,smallest element,element difference,element ratio difference,condition number,transport error solute_6,transport error solute_5,transport error solute_4,transport error solute_3,transport error solute_2,transport error solute_1,current errors,smallest eigenvalue,second smallest eigenvalue,sum absolute errors,sum squared errors
-150,38541422296599.984,753.95262197430566,38541422295846.031,51119156792.206841,32694299981566084.0,4.17158938432749e-05,7.233582437038422e-06,3.944849595427513e-06,0.00010819151066243649,3.285106095063384e-05,0.00012249144492670894,1.567901364296631e-11,-0.0003156228861514209,-178784.31563049695,0.00017337620496569046,0.00032997293385326511
-140,38076307458228.117,887.60740208002812,38076307457340.508,42897690317.813614,7.1504307422380595e+17,6.021204399075941e-06,5.364418029785156e-07,3.1187664717435837e-06,5.719508044421673e-05,1.261219586012885e-05,7.538568752352148e-05,1.0358602864357636e-11,1.7977436317348161e-05,-217795.51192139959,9.3990207278743648e-05,0.00015922650877249044
-130,37772911219173.242,1044.9554484792368,37772911218128.289,36147867618.801918,35237183019972040.0,2.339192330680362e-05,3.2228417694568634e-06,4.692818038165569e-06,3.3702002838253975e-05,1.674323357292451e-05,9.095718269236386e-06,2.9272140267266877e-12,0.00029322670397382368,-269020.34799221728,4.5288481018712808e-05,0.00010593930130890685
-120,37652386173029.43,1230.196916730976,37652386171799.234,30606796083.576424,36012766488152732.0,3.0591585158390444e-06,5.197711288928986e-06,2.414337359368801e-06,1.1399853974580765e-05,1.2125634384574369e-05,6.887465133331716e-06,1.2234657731369225e-12,-0.00015330689879073314,-335928.54757117166,1.6324322292061906e-05,4.4771404580731637e-05
-110,37739982985297.656,1448.2765328769626,37739982983849.383,26058547610.605957,98859810429163024.0,9.02445026440546e-06,2.012588083744049e-06,1.0981806553900242e-05,8.397275814786553e-05,4.4982019971939735e-05,2.052908530458808e-05,5.649924972317422e-12,0.00024136126104412303,-422959.96320879803,9.5315801272737076e-05,0.00017721595563774482
-100,38065783459114.68,1705.0155850299579,38065783457409.664,22325768628.352947,1.5369358774837088e+17,7.2507462753890195e-06,2.9192306101322174e-06,3.691762685775757e-06,2.498220419511199e-05,6.214567292772699e-06,1.013587461784482e-05,6.575850974854802e-12,-0.00025669207539731674,-535754.80275398749,3.1913456695705563e-05,7.8239436526783383e-05
-90,38665566612307.008,2007.2673133909143,38665566610299.742,19262788944.133476,31691604964354980.0,1.1770537884814303e-05,3.3890828490257263e-06,6.751273758709431e-06,2.2662163246423006e-05,3.3578464297079336e-05,4.669131158152595e-05,1.2195799925507345e-11,0.00037319204990421054,-681417.34450694174,6.8676280897681869e-05,0.00016789803599655869
-80,39581831837176.367,2363.0998465839748,39581831834813.266,16749961663.445858,43355609783404264.0,3.93834066017007e-05,1.0417774319648743e-05,2.1153828129172325e-05,0.00010589000885374844,2.5804709366639145e-05,0.00010096766345668584,2.0196733174770998e-11,0.00039458275824078183,-868803.91693469463,0.00014988890204836784,0.00035393018307085071
-70,40865007572761.281,2782.0115675035049,40865007569979.273,14689014255.045795,51888343140185608.0,3.925593500753166e-05,1.4677643775939941e-05,5.466863512992859e-05,0.0001785354397725314,3.3508487831568345e-05,0.00017244052287423983,3.767763878670394e-11,0.00028051926844872588,-1108813.1738208861,0.00025969676951679421,0.00057391260296134859
-60,42574879066703.766,3275.1846575215263,42574879063428.578,12999230125.522758,88231715078539472.0,2.962958227747947e-05,1.4986377209424973e-05,5.0653936341404915e-05,0.00022602389799430966,1.2018764437016216e-05,0.00023052254982758313,3.5682790056057456e-11,0.00017526175382086555,-1414630.2664932951,0.00032028407275813599,0.00061149826345025839
-50,44782274883135.281,3855.783587014465,44782274879279.5,11614312336.914692,2.1220136367615328e+17,6.580220039076323e-05,4.5128632336854935e-05,0.00014749914407730103,0.0002935846714535728,0.00010423124331282452,0.0001312186141149141,2.563349532636039e-11,-0.00014646028856713823,-1801808.2163195999,0.00033450933887991223,0.00088369535120655027
-40,47571058992897.469,3753.7472515438139,47571058989143.719,12672952067.652607,3.8716215618096717e+17,0.0003602146525736316,4.190346226096153e-05,0.00011924048885703087,0.0009066002385225147,0.000243751062953379,0.0006524059645016678,3.024902550663455e-10,-0.00058386001710596471,-2287828.3478525863,0.0013320390866965869,0.0033036170102434571
-30,51040483762193.937,3286.9320039923919,51040483758907.008,15528305331.59763,1.0646571905652762e+17,8.572601655032486e-05,5.38509339094162e-05,0.00021396949887275696,0.00039213470881804824,0.0002512295823180466,0.0001016837268252857,1.4624124133888472e-10,0.00029810684430084893,-2889513.0302459802,0.0005039291558719504,0.0013714260097097818
-20,55307969170765.945,2878.1698060321155,55307969167887.773,19216367656.574883,45912366776597272.0,0.00023667874665989075,2.847239375114441e-05,0.00016485853120684624,0.0009176616367767565,0.0002604095880087698,0.0003357697423780337,3.257416558710702e-10,-0.0016393381290440974,-3605142.4180879071,0.001414950167009805,0.0031719345003116232
-10,60512385418841.766,2520.2411921795619,60512385416321.523,24010553278.239723,29000304618480352.0,0.0005529442951228702,2.7056550607085228e-05,0.0006224289536476135,0.0002608519462228287,0.00024670509083080105,0.0017671846362645738,3.312594643034572e-11,0.00033599158938362828,-4224652.9239779906,0.0020940271935180072,0.0046932042589489806
0,66817930051692.141,2206.8245082158946,66817930049485.312,30277862966.870457,25118049209046784.0,0.0012083552883268567,0.0004469454288482666,0.00015518534928560257,0.0009071792956092395,0.0016658684326102957,0.00041319859883515164,5.649058998358214e-11,0.0011677790548979517,-4431009.3137939656,0.0019580423390427285,0.0054671078653987697
10,74418707229326.406,1932.3842595599249,74418707227394.016,38511339999.361351,41426703997332824.0,0.0005586503439189983,0.0005550682544708252,0.0029203444719314575,0.003550531162545667,0.0021615675868815742,0.00144863629975589,1.0038454512084627e-09,0.0073410058940982445,-4544626.87453245,0.0062053201841211795,0.015690228623522894
20,83544136254573.969,1692.0733446148813,83544136252881.891,49373826802.755264,63267788088942584.0,0.000455988429060028,0.0013162815594114363,0.0012147445231676102,0.00179987641331536,0.00041801814222708344,0.0008269373975053895,2.3229984602579634e-10,-0.0015272385137111767,-4643735.2663093973,0.0026569068093702619,0.0079675812794053943
30,94465339486294.844,1481.6474463563613,94465339484813.203,63756961697.333717,44922114436912544.0,0.00014872746381655588,0.0017859701765701175,0.0024902874138206244,0.0008338956495208549,0.003056179702980444,0.0004209397502563661,8.319392397204695e-10,-0.0018637189844176133,-4722452.4994461266,0.004501810798718967,0.012284973392480726
40,107502686944445.7,1297.3900701650587,107502686943148.31,82860728948.518021,2.9156309051142515e+17,6.37196317256894e-05,0.0004872006829828024,0.0011424762196838856,0.0042288753320463,0.0050347347860224545,0.002519901463529095,1.6856368523221477e-09,0.010782639157999541,-4705428.5041227508,0.0071563361752093532,0.017005495185081435
50,123034707014512.31,1136.0469039394227,123034707013376.27,108300728242.7072,2.3354000437410326e+17,0.0001750328985252736,0.0014797598123550415,0.005009343847632408,0.0013008766591156018,0.004622324835509062,0.0016541961304028518,1.588777234773353e-09,0.0040593109450715687,-4402092.4771362301,0.0076714885673560629,0.018133045669339334
60,141508610571298.22,994.7683411714047,141508610570303.44,142252828839.18741,7.1805662489297894e+17,0.0004314141304959662,0.0018430321506457403,0.0012371364864520729,0.0003447391851523207,0.0017755600565578789,0.0025967353067244403,5.2762676172601886e-11,0.0070275043713909149,-3911898.8565303884,0.0034559794623987769,0.010825307162677367
70,163452720618412.53,871.05915184085984,163452720617541.47,187648244407.94684,46678952521138592.0,0.00043613769184958073,0.0008253208943642676,0.001163977023679763,0.0019420709497808275,0.007047426362987608,0.0016628802095510764,1.2012491140689363e-09,0.0059567560441419866,-3414490.4485004726,0.0085019589775932845,0.017688459544599269
80,189491152422699.37,762.73441222732049,189491152421936.62,248436610942.13834,46892421509458208.0,0.00012481250314522185,0.0015720110386610031,0.0019382388854864985,0.0019723233417607844,0.0016811472014524043,0.0005698589920939412,6.086596365806329e-10,0.0025165887345801725,-2955871.0042073145,0.0032264984223839888,0.009651768372934539
90,220361151579952.0,667.88091528144889,220361151579284.12,329940782163.37494,1.2641014514873597e+17,0.00010264485808875179,0.001102979189454345,0.0031148043781286106,0.0003366253790488827,0.003713690093718469,0.0006153202309633343,1.0732303934446463e-10,0.0046566268620082396,-2546145.9595779143,0.004460620497144306,0.009529150106046793
100,256933571212922.78,584.82337999487515,256933571212337.97,439335327556.79895,1.5499687030660547e+18,6.0804253962487564e-05,0.00020928267258568667,0.0019796862761722878,0.0006183023398875775,0.0006192514847498387,0.00032767941888778296,7.234881027606832e-10,-0.0003734852700411727,-2186337.5667615756,0.0027686054635313634,0.0059349680666168983
"{'distance': [0.201, 0.409, 0.741, 0.754, 0.796], 'solute_6': [7.4, -10.16, 11.58, -3.07, 11.23], 'solute_5': [6.73, -3.38, 0.81, -0.74, 7.8], 'solute_4': [7.25, -5.98, 1.78, -6.11, 7.21], 'solute_3': [8.26, -8.42, 10.77, -5.76, 11.26], 'solute_2': [6.13, -1.63, 10.47, -6.52, 7.89], 'solute_1': [7.47, -6.2, 11.05, -9.01, 8.01]}","{'solute_5e': '123.0 mM', 'solute_6e': '97.0 uM', 'solute_6i': '131.0 uM', 'solute_5i': '33.0 uM', 'solute_4i': '117.0 uM', 'solute_3i': '111.0 uM', 'solute_1e': '102.0 mM', 'solute_2i': '84.0 mM', 'solute_3e': '55.0 mM', 'solute_1i': '21.0 uM', 'solute_2e': '58.0 uM', 'solute_4e': '27.0 mM'}"
voltage,"current, barrier 0","current, barrier 1","current, barrier 2",solute_6 transport over barrier 0,solute_6 transport over barrier 1,solute_6 transport over barrier 2,solute_5 transport over barrier 0,solute_5 transport over barrier 1,solute_5 transport over barrier 2,solute_4 transport over barrier 0,solute_4 transport over barrier 1,solute_4 transport over barrier 2,solute_3 transport over barrier 0,solute_3 transport over barrier 1,solute_3 transport over barrier 2,solute_2 transport over barrier 0,solute_2 transport over barrier 1,solute_2 transport over barrier 2,solute_1 transport over barrier 0,solute_1 transport over barrier 1,solute_1 transport over barrier 2
-150,-2.3791194060790883,-2.379119406092781,-2.3791194060947674,-154.0909722056972,-154.09101392159104,-154.0910138622744,-4871909.523349239,-4871909.523353994,-4871909.523356472,-1158793.3143531634,-1158793.3143571082,-1158793.3143568796,-1311825.5081144266,-1311825.5082217008,-1311825.5082226181,-2797.6236223239594,-2797.6235894728984,-2797.6235909946263,-160126.5923660223,-160126.59224353085,-160126.59224661355
-140,-1.8826249793964813,-1.882624979386257,-1.8826249793861227,-99.97184965150814,-99.97184367454574,-99.97184363030374,-3839041.771732807,-3839041.7717333436,-3839041.771732977,-939194.3357907883,-939194.335793907,-939194.3357934124,-1041346.2773624804,-1041346.2773052868,-1041346.2773052853,-2040.2851906253418,-2040.2851783128517,-2040.285178013146,-108371.16363041429,-108371.16370426954,-108371.16370579998
-130,-1.5402142692009235,-1.540214269202907,-1.5402142692038507,-65.65699934329768,-65.65697595137438,-65.65697633057698,-3154717.93306169,-3154717.9330619574,-3154717.933064913,-795899.597719056,-795899.5977143631,-795899.597716585,-817176.4052244303,-817176.4052581323,-817176.4052574626,-1506.5476472246555,-1506.5476312881458,-1506.547630481422,-75654.6566004951,-75654.65660959082,-75654.65660769856
-120,-1.3324420413861033,-1.3324420413873268,-1.3324420413870537,-44.67766705474969,-44.677663995591175,-44.677663996763386,-2769198.411426115,-2769198.4114313126,-2769198.411430645,-725097.9669304705,-725097.9669328849,-725097.9669311118,-635176.0151603229,-635176.015148923,-635176.0151509646,-1139.9508170114823,-1139.9508288281204,-1139.9508291371167,-56096.684764378006,-56096.684759016876,-56096.68475749054
-110,-1.2386148598461375,-1.2386148598517874,-1.238614859850907,-32.23610214877317,-32.236093390366655,-32.236093124322906,-2628629.347884788,-2628629.3478868008,-2628629.347886442,-723834.0920785292,-723834.0920698403,-723834.0920675474,-489960.2571533084,-489960.2572358118,-489960.2572372812,-878.4428267842868,-878.4427827755514,-878.4427818022668,-45041.76020414871,-45041.76018453947,-45041.760183619626
-100,-1.2383178646158763,-1.2383178646224522,-1.2383178646193647,-25.031490944015104,-25.03148369326883,-25.03148412758037,-2678343.7743996577,-2678343.7744010687,-2678343.774402577,-790658.280044871,-790658.280042313,-790658.2800411793,-375658.8405714715,-375658.8405964537,-375658.8405851071,-660.5991264648355,-660.5991318469696,-660.5991326794028,-39156.35360662569,-39156.35359648982,-39156.35359706105
-90,-1.3119670224502242,-1.3119670224380284,-1.3119670224428075,-20.91417279175539,-20.914161021217506,-20.914161418907497,-2863869.9685414974,-2863869.968540311,-2863869.9685381083,-925766.3778272729,-925766.3778253229,-925766.3778320742,-286587.34549735906,-286587.3454785489,-286587.3454746969,-428.65544259673334,-428.65540901826904,-428.6554237380624,-36231.33534349082,-36231.33539018213,-36231.335388783715
-80,-1.439917139896922,-1.4399171398845934,-1.4399171398767252,-18.530639165246157,-18.530677762843084,-18.53067854865276,-3128534.308298992,-3128534.308288574,-3128534.3082981706,-1130350.773682088,-1130350.7737025467,-1130350.773681393,-217663.94993484672,-217663.9498325933,-217663.9498289567,-123.09781461543935,-123.09779962841162,-123.09778881072998,-34884.0257357182,-34884.02583456079,-34884.02583668586
-70,-1.6003050768113056,-1.6003050767761493,-1.600305076773628,-17.034553437935756,-17.034592424054424,-17.034592693870763,-3408350.532492146,-3408350.5325068235,-3408350.5325044864,-1404960.32763835,-1404960.3276153966,-1404960.3275836813,-164583.68892756128,-164583.68874902584,-164583.68878471587,333.63041773115765,333.6304463599514,333.6304512396455,-34281.08329266263,-34281.083465103155,-34281.083455579166
-60,-1.7665991218226829,-1.766599121787,-1.7665991218002512,-15.87714418860287,-15.877114559020592,-15.877115363022313,-3627357.651896473,-3627357.6518963575,-3627357.651911344,-1746634.3157083371,-1746634.3157422757,-1746634.315758991,-123829.1987209986,-123829.19849638182,-123829.1984949747,1063.5573407215998,1063.5573527403642,1063.5573510825634,-33929.091044708155,-33929.091257222935,-33929.091275230705
