"{'distance': [0.319, 0.324, 0.478, 0.529, 0.68, 0.696, 0.848], 'solute_4': [13.07, -18.69, 15.1, -19.06, 2.65, -16.73, 12.91], 'solute_3': [18.1, -0.07, 0.83, -18.62, 15.58, -2.13, 11.38], 'solute_2': [15.01, -12.32, 13.62, -0.1, 12.99, -9.76, 13.91], 'solute_1': [16.4, -10.74, 4.21, -7.11, 17.16, -0.91, 18.56]}","{'solute_4i': '109.0 nM', 'solute_3i': '429.0 M', 'solute_1e': '126.0 M', 'solute_2i': '447.0 M', 'solute_3e': '93.0 mM', 'solute_1i': '291.0 nM', 'solute_2e': '357.0 mM', 'solute_4e': '330.0 uM'}"
voltage,current,solute_4,solute_3,solute_2,solute_1
-150,-8.436576513843042e-10,-1.2284256658020374e-08,2.5057430852459817e-09,-2.351543978857343e-06,-0.0026319519337799635
-140,-5.169537129358632e-10,-7.836987589465549e-09,1.8031147408503756e-09,-1.54496024857265e-06,-0.0016126841079656673
-130,-3.1743494258143144e-10,-4.924208334885243e-09,9.024967606574563e-09,-9.871877935203947e-07,-0.0009902517577414782
-120,-1.9390559345126152e-10,-3.0340367383706188e-09,5.347250975340501e-09,-5.683930764627156e-07,-0.0006049139244839186
-110,-1.161002104016901e-10,-1.8173044758661227e-09,1.2807256477564977e-08,-2.0328909910059123e-07,-0.00036226314902043644
-100,-6.657233171854686e-11,-1.0199251884064985e-09,1.337050692384878e-08,1.8774327301019952e-07,-0.00020787835006885746
-90,-3.542792044799581e-11,-5.328119734832042e-10,6.833281052109896e-09,6.840339546224703e-07,-0.00011091893466352865
-80,-1.7198999921473654e-11,-3.0097960718419856e-10,2.8701421905807933e-08,1.32997666992327e-06,-5.4358813102117765e-05
-70,-7.419237751613689e-12,-1.4294864234020686e-10,3.0787696614353877e-08,2.1206248174777336e-06,-2.4231736066249177e-05
-60,-2.6768172723823623e-12,-6.36249660005509e-11,4.440907996894339e-08,3.020784135216592e-06,-9.887143695430645e-06
-50,-5.755311816134464e-13,-9.191606415895852e-12,5.98982503596801e-08,4.055213339849609e-06,-3.853836184064541e-06
-40,3.883200373712389e-13,-2.2716258583163636e-10,8.858127253930093e-08,5.239781589771748e-06,-1.4519691332037787e-06
-30,8.07230003893053e-13,-2.7545663967223966e-11,1.231186086414482e-07,5.799238574763652e-06,-4.417065894435357e-07
-20,1.008399744697361e-12,-3.502402244882729e-10,1.7749742120543033e-07,6.508774731195605e-06,-1.9547077761972176e-07
-10,9.44978612737354e-13,-7.880676556089007e-10,2.3243843294551425e-07,6.148419188466035e-06,-2.402692925590477e-07
0,1.1916565739291208e-12,8.763008320204596e-09,3.837120523542126e-07,8.098880055429321e-06,-5.307813658039784e-07
10,1.5935343331588972e-12,6.628872338626976e-11,4.481149300517018e-07,9.117999521556585e-06,1.9045430432046428e-07
20,1.4801563929772362e-12,-6.072563374331367e-08,6.160248915421107e-07,8.828757968215943e-06,-4.1951710688659105e-08
30,2.484680365171967e-12,1.4237653750306437e-07,8.441386505353421e-07,1.4529136252441798e-05,-7.408151342369607e-08
40,2.5027298318474505e-12,4.2252064674285553e-07,1.1647321827013002e-06,1.3791092823942828e-05,-8.916650884316368e-08
50,3.34804572768232e-12,-6.907382658226044e-08,1.6035317926821335e-06,1.9594720694848186e-05,-8.047149432921508e-08
60,1.5749521505949403e-12,-1.128208787477927e-06,2.1799021610036107e-06,1.0703546740895114e-05,-3.9793466910520436e-07
70,7.26963639043283e-12,1.4324954843835505e-07,2.9064836155612284e-06,4.019391358775143e-05,9.958040048142769e-07
80,1.0474179508081266e-11,8.742303539352757e-07,3.922219349306033e-06,5.801683501946906e-05,8.47189740332821e-07
90,7.1657944233314136e-12,-2.3644783963172227e-06,5.2672652373075834e-06,4.5799852529600544e-05,-8.03929353143662e-07
100,1.4820685435071387e-11,-7.476710007369429e-08,7.035163349655704e-06,8.695514330888217e-05,-6.63565270795155e-07
"{'distance': [0.319, 0.324, 0.478, 0.529, 0.68, 0.696, 0.848], 'solute_4': [13.07, -18.69, 15.1, -19.06, 2.65, -16.73, 12.91], 'solute_3': [18.1, -0.07, 0.83, -18.62, 15.58, -2.13, 11.38], 'solute_2': [15.01, -12.32, 13.62, -0.1, 12.99, -9.76, 13.91], 'solute_1': [16.4, -10.74, 4.21, -7.11, 17.16, -0.91, 18.56]}","{'solute_4i': '109.0 nM', 'solute_3i': '429.0 M', 'solute_1e': '126.0 M', 'solute_2i': '447.0 M', 'solute_3e': '93.0 mM', 'solute_1i': '291.0 nM', 'solute_2e': '357.0 mM', 'solute_4e': '330.0 uM'}"
voltage,largest element,smallest element,element difference,element ratio difference,condition number,transport error solute_4,transport error solute_3,transport error solute_2,transport error solute_1,current errors,smallest eigenvalue,second smallest eigenvalue,sum absolute errors,sum squared errors
-150,6261174757556.0879,0.0024920921942168171,6261174757556.085,2512416985248722.0,4.1373804675550216e+23,5.689264735412516e-09,1.434113910452414e-08,3.5426569238924954e-09,1.6736138617762936e-08,6.510274052223378e-15,-1.7280399333685637e-10,-20.817803417332033,2.5917946053175537e-08,7.6215051806210563e-08
-140,5888717404672.7998,0.0028143254230858731,5888717404672.7969,2092408133177397.0,2.4249071145122976e+22,3.2455492788821567e-10,3.144536436794354e-09,2.1065394200043067e-09,2.3412455958963727e-08,7.165101832001753e-15,1.3472352122790033e-09,-20.900549101677889,2.9328908714153788e-08,8.2573590956706049e-08
-130,5538610855733.7275,0.0031782241465254501,5538610855733.7246,1742674714050215.0,3.5122177441499137e+22,9.752136807031774e-10,4.7658925070304115e-09,3.9592586986714196e-09,5.15679124488827e-09,2.3291557131769166e-15,4.1062158118165445e-09,-20.983535175996689,1.3835873203469354e-08,4.9827505615196303e-08
-120,5209526105412.5068,0.0035891758084186593,5209526105412.5029,1451454702551266.5,6.2700042729714721e+22,6.974921418821449e-09,3.529524487808815e-09,6.1549503271862704e-09,4.7645844349878015e-08,1.4004872044814188e-14,-7.3496408949469504e-10,-21.066751091135401,4.9409404375006287e-08,1.0933667744546074e-07
-110,4900213936765.3662,0.0040532644614826819,4900213936765.3623,1208954901248380.5,2.9265003316858419e+22,2.996540537388532e-08,8.91517888198135e-09,1.395356567061314e-08,2.6841610378802727e-08,1.2985257817417006e-14,3.6692994527111436e-08,-21.150186033574563,7.1003316685505497e-08,2.1351365134924295e-07
-100,4609500179169.835,0.0045773608403866031,4609500179169.8301,1007021368841989.1,7.2367183719886152e+21,3.54855968901272e-09,1.3530577991360815e-08,1.148154141316041e-08,4.477887130318876e-08,1.3504806374075114e-14,1.0792113857273739e-08,-21.233827945917973,6.5788422542301967e-08,1.3923414687467998e-07
-90,4336281251100.3779,0.0051692240815296893,4336281251100.3726,838865017787577.75,1.2682454426399068e+23,9.524625631476825e-09,7.021393658719323e-08,1.1644563346130166e-08,1.8235291743273763e-07,6.386107267721657e-14,-4.2080660116922346e-08,-21.317663885066501,3.0555369795851323e-07,5.689295158308113e-07
-80,4079519970821.0737,0.0058376165954199966,4079519970821.0679,698833146051717.75,9.4745751363067723e+21,4.097676275361357e-08,3.9085969252838915e-08,7.858920803016645e-08,8.851891330099017e-08,4.169685464440862e-14,-3.05998614764549e-07,-21.401680437118856,1.3719347749476257e-07,4.1600995660815174e-07
-70,3838241619092.3687,0.0065924337923146453,3838241619092.3618,582219213724517.0,1.2878059600693187e+22,1.612362850508841e-08,4.4416601285846014e-08,6.299004340348802e-08,9.130453285225682e-08,2.5714758696175845e-14,3.8581056739958418e-08,-21.485862963835018,7.6958957979723369e-08,2.6232014296700057e-07
-60,3611530238945.3643,0.0069745315634487642,3611530238945.3574,517816889362464.37,1.5402716291152122e+22,8.617393462047532e-09,4.2997824259632535e-08,5.415051734306551e-08,6.208190200735267e-08,2.60083058365412e-14,3.1217397115665987e-08,-12.643182649976422,1.8651184862336164e-07,3.9726975187080387e-07
-50,3398525158476.9419,0.0072649772538125055,3398525158476.9346,467795705305679.81,1.070031990812166e+22,8.455775870313463e-08,1.314157791476589e-07,7.789529238198814e-08,1.0242599085480874e-06,3.3080168976401937e-13,-4.0893895917216939e-07,-5.8407613760867658,1.40984724324947e-06,2.3040285875205796e-06
-40,3198417723465.3755,0.0075675181936253957,3198417723465.3682,422650813863864.56,1.1539892063924425e+23,6.530531953500561e-07,9.213008273369367e-07,2.0283479447184457e-07,1.6125382488740847e-06,4.630429609730072e-13,6.9805908365661078e-07,-2.6650528185555511,2.1729616307159882e-06,4.1474365439879864e-06
-30,3271479277079.8452,0.0078826580745037702,3271479277079.8374,415022349841781.19,3.1184925723614769e+22,2.5324906230920753e-07,2.9576559467033606e-07,5.6229294309587314e-08,3.075759206291133e-07,5.732546577601522e-14,-2.3768830103109385e-07,-1.2096858957441357,3.6921981826832198e-07,8.2028524557907392e-07
-20,3407442573987.6768,0.008210921563674714,3407442573987.6685,414989054220451.06,2.627306682259101e+22,1.4274637267007463e-07,2.8438851451539904e-07,8.437842122689128e-08,8.688223022368595e-08,4.1787163505374567e-14,-4.8072383889371429e-07,-0.55084148796974775,1.9733225461857827e-07,6.3921077365689392e-07
-10,3549102881207.4229,0.0085528551774792794,3549102881207.4141,414961180513455.62,3.7346578257274242e+22,8.031030914182735e-08,6.101627913957964e-07,3.843075748295667e-07,3.3955371815290886e-07,9.77636639159067e-14,5.7086034141900846e-08,-0.25435868069029011,5.9426778497284179e-07,1.4557265762853024e-06
0,3696692607529.7178,0.0085597001992648546,3696692607529.709,431871738667576.94,2.9907336374204823e+22,3.435483776451124e-07,2.3296876250356036e-07,1.1850541891892378e-07,8.38927328080902e-07,1.20486092437083e-13,7.7373694299240473e-07,-0.12096996944222677,7.5002884842678025e-07,2.0269197189972989e-06
10,3850454580799.457,0.0080579982217671414,3850454580799.4487,477842570180543.12,5.2296215231013744e+22,1.5462334109276624e-07,3.3923579562111783e-07,7.6884458621862e-07,4.132796820104817e-07,5.541813900867739e-14,-2.333049021698301e-07,-0.060742292529535613,4.9892141374846771e-07,1.5401974152483894e-06
20,4010642354889.9937,0.0075857020491884759,4010642354889.9858,528710767821292.87,1.6603733416844982e+23,4.0574505914212436e-07,4.928949601801236e-07,3.437296361142293e-07,5.0898039478327896e-08,6.58147115676285e-14,-4.1047911691420587e-08,-0.033501905390232296,6.0571183637274175e-07,1.2902261551572142e-06
30,4177520553476.5552,0.0071410881456415772,4177520553476.5479,584997757803371.0,9.3760326728271939e+22,4.071681711281328e-07,5.604485870946974e-07,2.612250895595025e-07,2.484683654091247e-07,2.1578607085192832e-13,8.6966364833710616e-07,-0.021373462166894442,1.0885526565092708e-06,2.9938837371995792e-06
40,4351365247255.3979,0.0067225339952915967,4351365247255.3911,647280512125793.0,4.8701078423283794e+22,8.018101720569398e-07,3.7700210743905007e-07,1.0844805302667737e-06,1.0828457505540486e-07,1.2005522133600698e-13,-8.6843580855939755e-08,-0.016387902696171585,9.4312871549726446e-07,2.1268018391132332e-06
50,4532464362156.1504,0.0063285121813590169,4532464362156.1445,716197461941651.12,3.5051293073929016e+22,9.71820818050144e-08,2.503006901743987e-07,8.353106268337825e-07,5.988557199018421e-07,1.8533179903774642e-13,1.5918025499304786e-06,-0.014972540480805797,8.6008063586390106e-07,2.4716759162966448e-06
60,4721118116805.7119,0.0059575848121646065,4721118116805.7061,792455041037067.25,4.5946554362855409e+22,1.3162010294647473e-06,2.4230525507700184e-06,2.595332468047218e-06,4.5867235977370133e-07,6.48356460455543e-13,-3.0270921412156732e-06,-0.015516290579423908,3.0423296898353622e-06,7.2236740242643105e-06
70,4917639488065.5811,0.0054448225487354878,4917639488065.5752,903177182368901.87,3.3742385420038641e+22,2.0074565028473758e-07,1.070205608744157e-06,1.6221568088781169e-06,1.4649426736291365e-06,2.0445977968823837e-13,9.6846672252495154e-07,-0.017305744148643037,1.3199885304387156e-06,2.9103406440312381e-06
80,5122354703913.501,0.0048136958934795531,5122354703913.4961,1064120961785734.1,5.8816418122475923e+22,9.077010936560728e-07,1.962690961343226e-06,3.1725537610327592e-06,1.7397069475742e-06,3.1563263170470623e-13,1.8981058355521003e-06,-0.020033215333494406,1.9580417338268653e-06,4.60275192674609e-06
90,5335603763300.752,0.0042557251310758205,5335603763300.748,1253747269610888.7,4.5032411545543763e+22,2.7796361586578406e-06,3.7129524212180525e-06,5.98134518270399e-06,1.9335236558247184e-06,6.74900147845369e-13,-3.2468930832975879e-06,-0.023597767204257474,4.0539802687295432e-06,9.988922419439696e-06
100,5557740982907.834,0.0037624305298976273,5557740982907.8301,1477167734724674.2,2.1643958101782328e+23,1.930739667936704e-07,5.385070944718962e-07,1.1129678014754063e-06,1.326444357552684e-06,1.6361204548115626e-13,-1.9671710782216088e-07,-0.028020934427418598,1.2278035987763352e-06,3.8656268384993251e-06
"{'distance': [0.319, 0.324, 0.478, 0.529, 0.68, 0.696, 0.848], 'solute_4': [13.07, -18.69, 15.1, -19.06, 2.65, -16.73, 12.91], 'solute_3': [18.1, -0.07, 0.83, -18.62, 15.58, -2.13, 11.38], 'solute_2': [15.01, -12.32, 13.62, -0.1, 12.99, -9.76, 13.91], 'solute_1': [16.4, -10.74, 4.21, -7.11, 17.16, -0.91, 18.56]}","{'solute_4i': '109.0 nM', 'solute_3i': '429.0 M', 'solute_1e': '126.0 M', 'solute_2i': '447.0 M', 'solute_3e': '93.0 mM', 'solute_1i': '291.0 nM', 'solute_2e': '357.0 mM', 'solute_4e': '330.0 uM'}"
voltage,"current, barrier 0","current, barrier 1","current, barrier 2","current, barrier 3",solute_4 transport over barrier 0,solute_4 transport over barrier 1,solute_4 transport over barrier 2,solute_4 transport over barrier 3,solute_3 transport over barrier 0,solute_3 transport over barrier 1,solute_3 transport over barrier 2,solute_3 transport over barrier 3,solute_2 transport over barrier 0,solute_2 transport over barrier 1,solute_2 transport over barrier 2,solute_2 transport over barrier 3,solute_1 transport over barrier 0,solute_1 transport over barrier 1,solute_1 transport over barrier 2,solute_1 transport over barrier 3
-150,-8.436641616583564e-10,-8.436576513843042e-10,-8.436592408852502e-10,-8.43658696045241e-10,-1.797352139343289e-08,-1.2284256658020374e-08,-1.236065449479019e-08,-1.295491008183719e-08,2.2973785096525035e-09,2.5057430852459817e-09,-1.1835396019278159e-08,-3.8708094507455826e-09,-2.3515852354272226e-06,-2.351543978857343e-06,-2.351266455224467e-06,-2.3548091121483594e-06,-0.002631966438912059,-0.0026319519337799635,-0.002631949786563611,-0.002631949702773441
-140,-5.169465652030951e-10,-5.169537129358632e-10,-5.169537303049271e-10,-5.169536156644353e-10,-7.628421394567653e-09,-7.836987589465549e-09,-7.828358763407162e-09,-7.512432661577333e-09,3.135601056580839e-09,1.8031147408503756e-09,4.219780289022111e-09,4.94765117764473e-09,-1.5463567577533865e-06,-1.54496024857265e-06,-1.544942129306343e-06,-1.5470486687263474e-06,-0.0016126619757415028,-0.0016126841079656673,-0.0016126853881974618,-0.0016126846569850166
-130,-3.174339971583207e-10,-3.1743494258143144e-10,-3.1743530717877245e-10,-3.174363263140339e-10,-5.020565713165226e-09,-4.924208334885243e-09,-4.922921843824865e-09,-5.898135524528042e-09,4.259075099544152e-09,9.024967606574563e-09,7.352929470846935e-09,5.7480065152049065e-09,-9.855382350210107e-07,-9.871877935203947e-07,-9.87012607352644e-07,-9.89497493719682e-07,-0.0009902471524583234,-0.0009902517577414782,-0.0009902521485462455,-0.0009902523092495683
-120,-1.9391876064622784e-10,-1.9390559345126152e-10,-1.9390477702849767e-10,-1.9390475577418303e-10,1.420669054619239e-09,-3.0340367383706188e-09,-3.0287319206966734e-09,-5.5542523642022095e-09,6.1146671961886945e-09,5.347250975340501e-09,8.876775463149316e-09,6.0390448197722435e-09,-5.700543983522266e-07,-5.683930764627156e-07,-5.684976150186746e-07,-5.638994480250403e-07,-0.0006049590283510042,-0.0006049139244839186,-0.0006049130941457349,-0.0006049113825066544
-110,-1.1608722514387268e-10,-1.161002104016901e-10,-1.1609823834738251e-10,-1.1609863571310323e-10,1.2691499906569703e-08,-1.8173044758661227e-09,-1.7829980916497883e-09,-1.727390546731562e-08,8.956686489702825e-09,1.2807256477564977e-08,1.7871865371684175e-08,1.6298145055770874e-08,-2.0108281795216953e-07,-2.0328909910059123e-07,-2.0726666453244904e-07,-1.933130988618359e-07,-0.00036223630741005763,-0.00036226314902043644,-0.00036225757187256053,-0.00036224951110546745
-100,-6.655915311018593e-11,-6.657233171854686e-11,-6.657265791656001e-11,-6.65725429862634e-11,-2.808119903274786e-09,-1.0199251884064985e-09,-1.0817933610425986e-09,7.404397857379338e-10,1.2070755825432933e-08,1.337050692384878e-08,8.475927354828483e-09,-1.6007106751203537e-10,1.8811561197651372e-07,1.8774327301019952e-07,1.88315545101203e-07,1.9922481442335993e-07,-0.00020783496643161925,-0.00020787835006885746,-0.0002078771451431167,-0.00020787974530292244
-90,-3.5372775171611416e-11,-3.542792044799581e-11,-3.543663624428863e-11,-3.5433846568131023e-11,-1.0057437604960029e-08,-5.328119734832042e-10,-6.82160135560136e-10,-8.277547133603739e-09,1.7048953582232684e-08,6.833281052109896e-09,-5.316498300496055e-08,-2.3079337552189827e-08,6.723893912763401e-07,6.840339546224703e-07,6.83181741420951e-07,6.835216481704265e-07,-0.00011073658174609591,-0.00011091893466352865,-0.00011091556293657752,-0.0001109144734712561
-80,-1.7157303066829246e-11,-1.7198999921473654e-11,-1.7197216188320563e-11,-1.719348298310168e-11,4.06398386332274e-08,-3.0097960718419856e-10,-3.3692412038617285e-10,1.0966768909746552e-08,2.3487266229138548e-08,2.8701421905807933e-08,4.256278384931021e-08,6.257323548197746e-08,1.3401329379547633e-06,1.32997666992327e-06,1.3309031950947399e-06,1.2615437299245968e-06,-5.427208498076652e-05,-5.4358813102117765e-05,-5.436060389406751e-05,-5.4335581378646994e-05
-70,-7.430417566514405e-12,-7.419237751613689e-12,-7.41412364991907e-12,-7.404702807818229e-12,1.5980679862748204e-08,-1.4294864234020686e-10,1.3899680177535236e-10,1.5408650004350073e-08,3.316266437847215e-08,3.0787696614353877e-08,7.25338110809794e-08,7.520429790019989e-08,2.1488461108276624e-06,2.1206248174777336e-06,2.119739660068191e-06,2.0858560674241744e-06,-2.4298051130244858e-05,-2.4231736066249177e-05,-2.4236486874445867e-05,-2.42067465973926e-05
-60,-2.7028255782189035e-12,-2.6768172723823623e-12,-2.6830877579745417e-12,-2.684809261578049e-12,-4.791131491543865e-09,-6.36249660005509e-11,-1.0488162400708616e-10,-8.681018428048083e-09,4.631767003271392e-08,4.440907996894339e-08,3.3198457730813853e-09,1.5046680346131325e-08,2.9666336178735264e-06,3.020784135216592e-06,3.020776407983459e-06,2.9939819796709344e-06,-9.937469712895108e-06,-9.887143695430645e-06,-9.886124762028738e-06,-9.875387810887756e-06
-50,-2.44729491849427e-13,-5.755311816134464e-13,-5.579267778265594e-13,-5.719788484305299e-13,-1.618347708620682e-08,-9.191606415895852e-12,8.782292839262643e-10,-8.367952941920836e-08,6.449213263426401e-08,5.98982503596801e-08,1.7214154632267313e-07,1.91314029507339e-07,4.11917364218084e-06,4.055213339849609e-06,4.055526677873759e-06,4.133108632231597e-06,-2.839474291249644e-06,-3.853836184064541e-06,-3.856056841465037e-06,-3.863734199797731e-06
-40,7.209812498331078e-14,3.883200373712389e-13,5.35141085956318e-13,5.256811331586883e-13,5.813559068867935e-07,-2.2716258583163636e-10,-3.41415429131256e-10,-7.169728846326264e-08,8.568948073328642e-08,8.858127253930093e-08,1.0069903080702231e-06,9.650393621996045e-07,5.33066418739736e-06,5.239781589771748e-06,5.241406484353934e-06,5.442616384243593e-06,-3.0645073820778634e-06,-1.4519691332037787e-06,-1.453628872305051e-06,-1.4914279219659254e-06
-30,8.16291726716084e-13,8.07230003893053e-13,7.589662609400687e-13,7.597029924206875e-13,-1.988002694408575e-07,-2.7545663967223966e-11,1.687415420066618e-11,5.444879286835004e-08,1.2476047475673546e-07,1.231186086414482e-07,-1.710051199136006e-07,-1.6803096514195204e-07,5.74830639088475e-06,5.799238574763652e-06,5.804535685194337e-06,5.796513505629264e-06,-1.9000617612618953e-07,-4.417065894435357e-07,-4.4797360205028427e-07,-4.975820967553028e-07
