"{'distance': [0.125, 0.25, 0.375, 0.5, 0.625, 0.75, 0.875], 'solute_4': [8.0, -10.0, 8.0, -10.0, 8.0, -10.0, 8.0], 'solute_3': [8.0, -10.0, 8.0, -10.0, 8.0, -10.0, 8.0], 'solute_2': [8.0, -10.0, 8.0, -10.0, 8.0, -10.0, 8.0], 'solute_1': [8.0, -10.0, 8.0, -10.0, 8.0, -10.0, 8.0]}","{'solute_4i': '1.0 mM', 'solute_3i': '1.0 mM', 'solute_1e': '1.0 mM', 'solute_2i': '1.0 mM', 'solute_3e': '1.0 mM', 'solute_1i': '1.0 mM', 'solute_2e': '1.0 mM', 'solute_4e': '1.0 mM'}"
voltage,current,solute_4,solute_3,solute_2,solute_1
-150,-0.0632154787078955,-37710.74785176313,-79795.49796534708,-37710.74785176675,-79795.49796533337
-140,-0.056764342044188044,-34957.31110512601,-71104.89944772908,-34957.3111051314,-71104.89944772911
-130,-0.05084696233465516,-32252.845548398913,-63222.769383498715,-32252.845548401747,-63222.7693835041
-120,-0.04538714857436238,-29599.693271195014,-56029.03690741405,-29599.693271197397,-56029.03690741464
-110,-0.040316311877118774,-27000.25708062858,-49415.46427666271,-27000.25708062603,-49415.464276663704
-100,-0.03557450600999752,-24455.6955071088,-43287.923173411065,-24455.69550710547,-43287.92317340665
-90,-0.03111144709815744,-21964.612265863518,-37568.641273681555,-21964.61226586257,-37568.64127368088
-80,-0.026887472402181978,-19521.865433871993,-32198.29387822882,-19521.865433872503,-32198.29387822971
-70,-0.022874349491121486,-17117.672643087582,-27137.71407034374,-17117.67264308687,-27137.714070343965
-60,-0.019055674885703894,-14737.286675576954,-22368.677020674644,-14737.286675579828,-22368.677020675477
-50,-0.015426220063995546,-12361.65753505778,-17892.54836105323,-12361.65753505822,-17892.5483610534
-40,-0.011988973223330741,-9969.612471020364,-13724.577696029517,-9969.612471020766,-13724.577696029639
-30,-0.008748111347433949,-7541.970587239444,-9880.873862801156,-7541.970587239086,-9880.873862799624
-20,-0.005696853310873238,-5067.307914288895,-6356.566565441095,-5067.307914288913,-6356.566565442408
-10,-0.002802852656055586,-2547.5625514480253,-3100.2085121283017,-2547.5625514480944,-3100.208512127716
0,-3.3656942832749337e-16,2.9340299079194665e-09,-1.367880031466484e-09,2.6921043172478676e-09,-2.495653461664915e-09
10,0.0028028526560556458,2547.562551450679,3100.2085121290984,2547.562551450237,3100.2085121247073
20,0.005696853310871342,5067.307914287265,6356.566565441497,5067.307914286597,6356.566565438059
30,0.00874811134743344,7541.97058724009,9880.8738628008,7541.970587239382,9880.87386279792
40,0.011988973223334988,9969.612471022887,13724.577696038687,9969.612471025963,13724.577696029859
50,0.015426220063992354,12361.657535056027,17892.548361053898,12361.657535056815,17892.548361044348
60,0.01905567488570093,14737.286675579213,22368.67702066458,14737.286675579868,22368.67702067515
70,0.02287434949112578,17117.67264308651,27137.71407035504,17117.6726430873,27137.7140703464
80,0.02688747240218089,19521.86543387353,32198.293878231212,19521.86543387193,32198.293878223427
90,0.0311114470981534,21964.61226586264,37568.64127367249,21964.61226586144,37568.641273678324
100,0.035574506010000374,24455.69550710626,43287.92317341472,24455.695507109205,43287.9231734113
"{'distance': [0.125, 0.25, 0.375, 0.5, 0.625, 0.75, 0.875], 'solute_4': [8.0, -10.0, 8.0, -10.0, 8.0, -10.0, 8.0], 'solute_3': [8.0, -10.0, 8.0, -10.0, 8.0, -10.0, 8.0], 'solute_2': [8.0, -10.0, 8.0, -10.0, 8.0, -10.0, 8.0], 'solute_1': [8.0, -10.0, 8.0, -10.0, 8.0, -10.0, 8.0]}","{'solute_4i': '1.0 mM', 'solute_3i': '1.0 mM', 'solute_1e': '1.0 mM', 'solute_2i': '1.0 mM', 'solute_3e': '1.0 mM', 'solute_1i': '1.0 mM', 'solute_2e': '1.0 mM', 'solute_4e': '1.0 mM'}"
voltage,largest element,smallest element,element difference,element ratio difference,condition number,transport error solute_4,transport error solute_3,transport error solute_2,transport error solute_1,current errors,smallest eigenvalue,second smallest eigenvalue,sum absolute errors,sum squared errors
-150,300188110.48279744,20729.433698919936,300167381.04909855,14481.249938749563,2.2486346543896931e+17,8.403731044381857e-09,1.382431946694851e-08,3.4633558243513107e-09,2.703745849430561e-08,9.71445146547012e-15,3.7171376765150348e-08,-233689.40934636083,2.5294188567595297e-08,1.6088920418155794e-07
-140,274618881.07959074,22909.567272223612,274595971.51231849,11987.08285566566,1.1020629714726381e+17,8.141796570271254e-09,2.427259460091591e-08,1.4966644812375307e-08,2.5029294192790985e-08,1.3322676295501878e-14,-3.8489654534706923e-08,-226021.44013499911,2.1255705124411048e-08,1.3782254715266617e-07
-130,251736253.53306255,25318.987494959183,251710934.5455676,9942.5876956249267,68210479344501632.0,9.51331458054483e-09,1.6487319953739643e-08,1.2405507732182741e-08,1.1161318980157375e-08,2.6229018956769323e-15,-1.0547547557309618e-08,-217174.80923077508,1.4469650764072543e-08,1.0641602621319635e-07
-120,231314228.55387288,27981.808654549885,231286246.74521834,8266.5931787887075,1.5345361056130941e+17,7.981725502759218e-09,7.195922080427408e-09,8.05084710009396e-09,9.49512468650937e-09,3.247402347028583e-15,2.7925223077340684e-08,-204996.72109182429,1.2455815244783107e-08,8.9585098450584155e-08
-110,213151286.21338069,30924.681160165994,213120361.53222054,6892.594465547485,1.7700091626054291e+17,9.19681042432785e-09,1.2958480510860682e-08,1.1656084097921848e-08,1.3016688171774149e-08,7.667477763817487e-15,-1.8375521075942765e-08,-188494.98457735474,1.5197429661177893e-08,1.0595532273782737e-07
-100,197068376.24236405,34177.058268977336,197034199.18409508,5766.1011866911867,8.3832479601424973e+17,1.2187229003757238e-08,1.2660166248679161e-09,4.845787771046162e-09,9.771611075848341e-09,3.5388358909926865e-16,-1.5832483768463135e-08,-169683.04839695097,1.0882341985609171e-08,7.1152003400243302e-08
-90,182907132.8635731,37771.490864250583,182869361.37270886,4842.4652741649761,28483845989522180.0,4.110916052013636e-09,1.356966095045209e-08,2.1973391994833946e-09,1.7105776350945234e-08,9.086481567166516e-15,1.046026798695692e-08,-150671.19146001432,1.6483511172029821e-08,1.0312993126149195e-07
-80,170528296.30863476,41743.953235529756,170486552.35539922,4085.1017474667947,1.5851308523649594e+17,7.894414011389017e-09,4.321918822824955e-09,6.872141966596246e-09,1.0175426723435521e-08,5.440092820663267e-15,1.8534213882115481e-08,-132560.03159659862,1.1725047253228706e-08,7.669655843756118e-08
-70,159810325.23755807,46134.203121417318,159764191.03443664,3464.0313352105522,1.520877129426584e+17,7.3960109148174524e-09,1.2601958587765694e-08,6.959453457966447e-09,5.2677933126688e-09,5.6968318951078345e-15,-1.7217923397853092e-09,-115913.74368833234,1.4435681962114804e-08,8.727153755216932e-08
-60,150648186.18891913,50986.179618385198,150597200.00930074,2954.6866879705699,6.2170844595492672e+17,3.041350282728672e-09,5.0495145842432976e-09,6.777554517611861e-09,1.4329998521134257e-08,4.8606951796870135e-15,2.7802561356877592e-08,-101064.2894021995,9.6402320926475143e-09,6.8909983497178473e-08
-50,142952307.95982918,56348.442938020635,142895959.51689115,2536.9344831243479,81732710556430032.0,5.369656719267368e-09,5.289621185511351e-09,4.285539034754038e-09,3.2159732654690742e-09,1.1553258350005535e-15,1.743366977769616e-08,-88229.256888746269,9.6609696375179611e-09,6.1627446257261909e-08
-40,136647690.46474817,62274.660413945508,136585415.80433422,2194.2743574423075,5.9720080312622464e+17,6.542904884554446e-09,7.012204150669277e-09,5.238689482212067e-09,6.319169187918305e-09,2.2690183065776637e-15,1.3312356444566359e-08,-77559.828363600885,1.0980257116591776e-08,7.1182057581609115e-08
-30,131673159.16760041,68824.143622529344,131604335.02397788,1913.1826745243752,1.7214605280421782e+17,1.1452357284724712e-08,7.194103091023862e-09,6.184563972055912e-09,1.1235897545702755e-08,4.133846043252731e-15,1.1210983213820469e-09,-69163.430647925939,8.2750462285317087e-09,6.4043931047308433e-08
-20,127980757.63794535,76062.441993080982,127904695.19595227,1682.5749250804638,81850546318240208.0,3.4051481634378433e-09,4.8476067604497075e-09,3.5943230614066124e-09,6.4828782342374325e-09,3.6186331708876196e-15,-3.079663866030176e-08,-63115.799969745502,8.7304914605740993e-09,6.6216372829330794e-08
-10,125535272.16373324,84061.998848568997,125451210.16488467,1493.3653004120808,2.5595682831514926e+18,1.813532435335219e-09,1.6061676433309913e-09,1.0222720447927713e-09,3.432433004491031e-09,1.5317608292875207e-15,-3.9117801972545151e-08,-59467.687638361022,6.0939084403867911e-09,4.2301053326809779e-08
0,124313883.6742551,92902.876442747045,124220980.79781236,1338.1058631792268,1.6194114623598254e+18,1.0884832590818405e-08,7.392372936010361e-09,1.3504177331924438e-08,4.285539034754038e-09,1.147250077337958e-15,-4.4237822294235229e-09,-58248.442374085062,1.1786172437738912e-08,7.3708122272364562e-08
10,125535272.16373324,84061.998848568997,125451210.16488467,1493.3653004120808,1.16068526656964e+17,3.6543497117236257e-09,5.366018740460277e-10,3.6725396057590842e-09,8.789356797933578e-09,2.3505503099485736e-15,7.4505805969238281e-09,-59467.687638352931,7.557695862914768e-09,5.9938756180599739e-08
20,127980757.63794535,76062.441993080982,127904695.19595227,1682.5749250804638,9.1025770349998272e+17,5.296897143125534e-09,5.486072041094303e-09,7.0140231400728226e-09,4.392859409563243e-09,2.0539125955565396e-15,2.6509704496753183e-10,-63115.799969739608,7.5981784503428923e-09,5.9576564126473386e-08
30,131673159.16760041,68824.143622529344,131604335.02397788,1913.1826745243752,1.6949470765819382e+17,3.259629011154175e-09,4.394678398966789e-09,2.3237589630298316e-09,5.4697011364623904e-09,1.889113865338743e-15,-1.5366822481155396e-08,-69163.430647922156,8.4828296913259186e-09,5.9685234532480536e-08
40,136647690.46474817,62274.660413945508,136585415.80433422,2194.2743574423075,1.4675972458287024e+17,2.6157067622989416e-09,1.3042154023423791e-08,6.666596163995564e-09,8.149072527885437e-09,6.170411404049503e-15,6.1842439242768801e-09,-77559.828363613036,1.5833079950929584e-08,9.8274220761140896e-08
50,142952307.95982918,56348.442938020635,142895959.51689115,2536.9344831243479,3.029767307849495e+17,3.92901711165905e-09,4.642060957849026e-09,2.561137080192566e-09,9.149516699835658e-09,2.8189256484623115e-15,-9.6965753773233458e-09,-88229.256888743854,8.7993121471809992e-09,5.4897270729270531e-08
60,150648186.18891913,50986.179618385198,150597200.00930074,2954.6866879705699,2.1627683254206912e+17,7.006747182458639e-09,1.535227056592703e-08,7.283233571797609e-09,4.813045961782336e-09,2.491062911502695e-15,-2.3315951144969046e-08,-101064.28940221996,1.0507437755608479e-08,6.5620533007404447e-08
70,159810325.23755807,46134.203121417318,159764191.03443664,3464.0313352105522,1.5705841566301776e+17,3.899913281202316e-09,1.0684743756428361e-08,2.4119799491018057e-09,1.1146767064929008e-08,4.399258735077183e-15,-3.1996876147742504e-09,-115913.74368829068,1.2118302750402567e-08,7.8120407920323487e-08
80,170528296.30863476,41743.953235529756,170486552.35539922,4085.1017474667947,2.8195874003383229e+18,4.598405212163925e-09,4.976755008101463e-09,1.0688381735235453e-08,6.199115887284279e-09,2.2239154962022667e-15,3.4458935260772705e-08,-132560.03159661821,1.3014028257596041e-08,7.7812629228901642e-08
90,182907132.8635731,37771.490864250583,182869361.37270886,4842.4652741649761,1.1037843987554278e+17,3.3614924177527428e-09,1.2136297300457954e-08,3.2523530535399914e-09,9.546056389808655e-09,6.231126725708691e-15,-4.5431072568213327e-08,-150671.19145994377,1.53445109738183e-08,9.8079095067760136e-08
100,197068376.24236405,34177.058268977336,197034199.18409508,5766.1011866911867,6.0394412738556992e+17,7.108610589057207e-09,7.552444003522396e-09,2.557499101385474e-09,4.685716703534126e-09,1.7416623698807143e-15,2.4950200888847214e-08,-169683.04839699541,1.34365644515307e-08,9.4089720903411944e-08
"{'distance': [0.125, 0.25, 0.375, 0.5, 0.625, 0.75, 0.875], 'solute_4': [8.0, -10.0, 8.0, -10.0, 8.0, -10.0, 8.0], 'solute_3': [8.0, -10.0, 8.0, -10.0, 8.0, -10.0, 8.0], 'solute_2': [8.0, -10.0, 8.0, -10.0, 8.0, -10.0, 8.0], 'solute_1': [8.0, -10.0, 8.0, -10.0, 8.0, -10.0, 8.0]}","{'solute_4i': '1.0 mM', 'solute_3i': '1.0 mM', 'solute_1e': '1.0 mM', 'solute_2i': '1.0 mM', 'solute_3e': '1.0 mM', 'solute_1i': '1.0 mM', 'solute_2e': '1.0 mM', 'solute_4e': '1.0 mM'}"
voltage,"current, barrier 0","current, barrier 1","current, barrier 2","current, barrier 3",solute_4 transport over barrier 0,solute_4 transport over barrier 1,solute_4 transport over barrier 2,solute_4 transport over barrier 3,solute_3 transport over barrier 0,solute_3 transport over barrier 1,solute_3 transport over barrier 2,solute_3 transport over barrier 3,solute_2 transport over barrier 0,solute_2 transport over barrier 1,solute_2 transport over barrier 2,solute_2 transport over barrier 3,solute_1 transport over barrier 0,solute_1 transport over barrier 1,solute_1 transport over barrier 2,solute_1 transport over barrier 3
-150,-0.06321547870789304,-0.0632154787078955,-0.06321547870788578,-0.06321547870788899,-37710.747851771535,-37710.74785176313,-37710.747851764434,-37710.74785176841,-79795.49796533326,-79795.49796534708,-79795.49796534276,-79795.4979653427,-37710.74785177021,-37710.74785176675,-37710.74785176698,-37710.747851769454,-79795.49796533363,-79795.49796533337,-79795.4979653066,-79795.49796531345
-140,-0.05676434204419213,-0.056764342044188044,-0.056764342044198536,-0.05676434204418521,-34957.31110512643,-34957.31110512601,-34957.311105127184,-34957.311105134155,-71104.89944773685,-71104.89944772908,-71104.8994477425,-71104.89944771823,-34957.31110512492,-34957.3111051314,-34957.311105131404,-34957.31110513989,-71104.89944773715,-71104.89944772911,-71104.89944774786,-71104.89944772283
-130,-0.050846962334654,-0.05084696233465516,-0.0508469623346558,-0.050846962334653176,-32252.845548401558,-32252.845548398913,-32252.84554839986,-32252.845548408426,-63222.769383499544,-63222.769383498715,-63222.76938349341,-63222.76938348306,-32252.84554839963,-32252.845548401747,-32252.845548402533,-32252.845548412035,-63222.76938349937,-63222.7693835041,-63222.76938351053,-63222.76938350365
-120,-0.04538714857436199,-0.04538714857436238,-0.04538714857436524,-0.04538714857436412,-29599.6932711966,-29599.693271195014,-29599.69327119531,-29599.69327118862,-56029.03690741348,-56029.03690741405,-56029.036907420676,-56029.036907417896,-29599.693271195894,-29599.693271197397,-29599.69327119728,-29599.693271189346,-56029.036907413974,-56029.03690741464,-56029.03690741688,-56029.03690742347
-110,-0.04031631187711493,-0.040316311877118774,-0.040316311877111106,-0.04031631187711767,-27000.25708062834,-27000.25708062858,-27000.25708062482,-27000.257080619383,-49415.464276656494,-49415.46427666271,-49415.46427665024,-49415.464276663195,-27000.257080629934,-27000.25708062603,-27000.25708062385,-27000.257080618278,-49415.4642766561,-49415.464276663704,-49415.46427665524,-49415.46427666826
-100,-0.035574506009997856,-0.03557450600999752,-0.035574506009997515,-0.03557450600999787,-24455.695507101926,-24455.6955071088,-24455.695507113353,-24455.695507114113,-43287.923173410774,-43287.923173411065,-43287.92317341204,-43287.92317341134,-24455.695507104232,-24455.69550710547,-24455.695507107703,-24455.695507109078,-43287.923173412055,-43287.92317340665,-43287.92317340228,-43287.923173403
-90,-0.03111144709815841,-0.03111144709815744,-0.0311114470981659,-0.031111447098156813,-21964.61226585955,-21964.612265863518,-21964.612265862314,-21964.61226586366,-37568.641273683956,-37568.641273681555,-37568.641273695124,-37568.64127368279,-21964.61226586091,-21964.61226586257,-21964.6122658623,-21964.612265863107,-37568.64127368432,-37568.64127368088,-37568.64127369444,-37568.641273677335
-80,-0.02688747240218063,-0.026887472402181978,-0.026887472402176538,-0.02688747240218131,-19521.86543387593,-19521.865433871993,-19521.86543386814,-19521.865433868035,-32198.293878225377,-32198.29387822882,-32198.29387822541,-32198.2938782297,-19521.865433875035,-19521.865433872503,-19521.865433868163,-19521.865433869127,-32198.29387822571,-32198.29387822971,-32198.293878220236,-32198.29387823041
-70,-0.02287434949111948,-0.022874349491121486,-0.022874349491124244,-0.022874349491125177,-17117.6726430876,-17117.672643087582,-17117.67264309225,-17117.67264309498,-27137.71407034075,-27137.71407034374,-27137.71407035267,-27137.71407035335,-17117.67264308915,-17117.67264308687,-17117.67264309059,-17117.67264309383,-27137.71407033954,-27137.714070343965,-27137.714070339454,-27137.714070338698
-60,-0.019055674885702926,-0.019055674885703894,-0.019055674885707787,-0.019055674885705854,-14737.286675578318,-14737.286675576954,-14737.286675575559,-14737.286675575277,-22368.677020675415,-22368.677020674644,-22368.677020674746,-22368.677020670366,-14737.28667557305,-14737.286675579828,-14737.28667557882,-14737.286675579395,-22368.677020674397,-22368.677020675477,-22368.677020688727,-22368.677020686926
-50,-0.015426220063994505,-0.015426220063995546,-0.015426220063995265,-0.01542622006399566,-12361.657535060163,-12361.65753505778,-12361.657535055221,-12361.657535054794,-17892.548361051056,-17892.54836105323,-17892.548361056346,-17892.548361056106,-12361.657535057879,-12361.65753505822,-12361.657535054277,-12361.657535053935,-17892.548361051304,-17892.5483610534,-17892.54836105265,-17892.54836105452
-40,-0.01198897322332887,-0.011988973223330741,-0.011988973223328547,-0.011988973223330816,-9969.612471022163,-9969.612471020364,-9969.612471023265,-9969.612471026907,-13724.577696022505,-13724.577696029517,-13724.577696026809,-13724.57769602834,-9969.612471021886,-9969.612471020766,-9969.612471022218,-9969.612471026005,-13724.577696029344,-13724.577696029639,-13724.57769602332,-13724.577696025153
-30,-0.008748111347434903,-0.008748111347433949,-0.008748111347437429,-0.008748111347433295,-7541.970587235919,-7541.970587239444,-7541.970587241476,-7541.970587247371,-9880.87386280243,-9880.873862801156,-9880.873862804254,-9880.87386279706,-7541.9705872388,-7541.970587239086,-7541.97058723983,-7541.970587244985,-9880.87386280323,-9880.873862799624,-9880.873862805996,-9880.87386279476
-20,-0.005696853310872147,-0.005696853310873238,-0.005696853310869619,-0.005696853310871394,-5067.30791429081,-5067.307914288895,-5067.307914288151,-5067.307914287405,-6356.566565438232,-6356.566565441095,-6356.5665654366585,-6356.566565441506,-5067.30791429129,-5067.307914288913,-5067.307914288898,-5067.307914287696,-6356.566565439716,-6356.566565442408,-6356.566565435925,-6356.566565437592
-10,-0.0028028526560555326,-0.002802852656055586,-0.0028028526560570644,-0.002802852656056239,-2547.562551449839,-2547.5625514480253,-2547.5625514486183,-2547.562551448951,-3100.208512127225,-3100.2085121283017,-3100.208512128831,-3100.2085121276177,-2547.5625514484127,-2547.5625514480944,-2547.5625514491167,-2547.5625514483254,-3100.2085121275595,-3100.208512127716,-3100.208512130992,-3100.2085121298587
0,-5.128677003085588e-17,-3.3656942832749337e-16,5.62406057724729e-17,-1.091009471565485e-15,4.6566128730773926e-09,2.9340299079194665e-09,-2.382876118645072e-09,-6.2282197177410126e-09,-6.05359673500061e-09,-1.367880031466484e-09,9.949872037395835e-10,1.3387762010097504e-09,6.664777174592018e-09,2.6921043172478676e-09,-2.799424692057073e-09,-6.83940015733242e-09,2.3283064365386963e-10,-2.495653461664915e-09,1.7716956790536642e-09,1.7898855730891228e-09
10,0.0028028526560541526,0.0028028526560556458,0.002802852656056503,0.002802852656055679,2547.562551448267,2547.562551450679,2547.562551447025,2547.5625514472194,3100.2085121290293,3100.2085121290984,3100.208512129566,3100.208512129102,2547.5625514499843,2547.562551450237,2547.5625514472486,2547.5625514465646,3100.2085121214477,3100.2085121247073,3100.208512130237,3100.2085121283744
