"{'distance': [0.1, 0.105, 0.343, 0.71, 0.726, 0.832, 0.991], 'solute_4': [6.64, -1.17, 5.56, -18.18, 4.94, -7.28, 11.36], 'solute_3': [15.05, -11.23, 8.37, -14.32, 6.48, -17.66, 7.51], 'solute_2': [13.13, -12.15, 15.81, -15.26, 7.37, -19.46, 18.56], 'solute_1': [7.9, -7.52, 8.01, -12.0, 6.11, -6.72, 15.71]}","{'solute_4i': '354.0 nM', 'solute_3i': '79.0 nM', 'solute_1e': '161.0 uM', 'solute_2i': '263.0 mM', 'solute_3e': '11.0 nM', 'solute_1i': '130.0 mM', 'solute_2e': '49.0 mM', 'solute_4e': '16.0 uM'}"
voltage,current,solute_4,solute_3,solute_2,solute_1
-150,-1.6289902435093311e-10,-0.00025959869930830375,1.6485693564700194e-08,-0.00017489857292284124,-2.1056552412052065e-05
-140,-1.0282811785781291e-10,-0.0002838890636382022,1.4856536276113626e-08,-0.00015254987433179298,0.00012077627128079249
-130,-6.398206448181803e-11,-0.0002544575068548164,1.2823475248055965e-08,-0.0001330773292800119,0.00016568278639727402
-120,-4.0972595558651885e-11,-0.00018084845297859295,1.0305341475185832e-08,-0.00011831429579029825,0.00013503010864078513
-110,-2.7034388850726844e-11,-9.616296066992935e-05,6.9205030061802005e-09,-0.00010827846457384154,7.600214608279032e-05
-100,-1.9211251611140588e-11,-3.8626192475625654e-05,3.381851646262593e-09,-9.8374512923961e-05,3.14430954857052e-05
-90,-1.4731701437893483e-11,-1.2956558139341767e-05,2.2979825696258977e-09,-8.539691849558437e-05,1.0768702892341095e-05
-80,-1.1501076804334696e-11,-4.009599010252121e-06,3.8667952870133174e-10,-6.987782525152546e-05,3.371415187736898e-06
-70,-8.577821999250832e-12,-1.1904195622788882e-06,8.945802187764284e-10,-5.298149787745923e-05,1.0024683533048709e-06
-60,-5.625587878260305e-12,-3.482974546579684e-07,3.0551578409651046e-10,-3.515963339449238e-05,3.627303466861853e-07
-50,-2.596446775348445e-12,-1.0452817048945198e-07,-4.191501992104894e-10,-1.61894312753477e-05,9.86340024165637e-08
-40,6.836172053947337e-13,-3.09723679550733e-08,1.0673127450762125e-10,4.249039318339416e-06,3.7014832055329294e-08
-30,4.291628056002392e-12,-1.1491488422507926e-08,2.908108848279975e-09,2.6787439850294587e-05,1.110512335322951e-08
-20,8.36176324727102e-12,-2.2321193725825805e-09,-2.5031129849010477e-10,5.216907420450923e-05,1.1216013626972471e-08
-10,1.3031043856397516e-11,4.402831551598985e-09,-4.653365921933094e-11,8.130543666693485e-05,7.915847280610955e-09
0,1.8470427908925272e-11,-1.5100454734285479e-09,1.3454290129759732e-10,0.00011528269744510548,5.917503747643674e-09
10,2.4885268729005508e-11,-1.7237535536321694e-09,6.94073173417654e-10,0.0001553870009145255,-1.4589205297511378e-08
20,3.252678888227598e-11,-1.6578255500158956e-10,2.24068485763308e-09,0.00020315746986801736,-4.019366042166267e-08
30,4.173385846175938e-11,-1.0545358197777688e-09,3.2314227693831935e-09,0.00026041371628544277,3.239752147061797e-08
40,5.277950738870232e-11,-9.817537128847982e-10,-7.425289262481498e-11,0.0003293852475015027,2.595602394798199e-08
50,6.612003700099526e-11,3.961332706222407e-09,3.3649428851275447e-09,0.00041267996093948835,1.3034494674194711e-08
60,8.226595036330307e-11,2.5991264421742696e-09,-1.787868573253231e-10,0.000513465835037444,1.5611926323298676e-08
70,1.0184933197897761e-10,3.2526180614069877e-08,5.659468006139442e-09,0.0006355243646824873,4.5339216948493276e-08
80,1.2556164480353862e-10,4.212896415932226e-08,-2.4170777213537744e-09,0.000783437947295363,7.287907302842259e-08
90,1.5425553975604637e-10,1.2141161178624827e-08,-7.095143821157614e-10,0.0009627040940407255,5.1232860723464196e-08
100,1.8909586832650072e-10,5.469161957368765e-09,2.221035906706708e-09,0.0011799437055894368,1.3712526401159512e-07
"{'distance': [0.1, 0.105, 0.343, 0.71, 0.726, 0.832, 0.991], 'solute_4': [6.64, -1.17, 5.56, -18.18, 4.94, -7.28, 11.36], 'solute_3': [15.05, -11.23, 8.37, -14.32, 6.48, -17.66, 7.51], 'solute_2': [13.13, -12.15, 15.81, -15.26, 7.37, -19.46, 18.56], 'solute_1': [7.9, -7.52, 8.01, -12.0, 6.11, -6.72, 15.71]}","{'solute_4i': '354.0 nM', 'solute_3i': '79.0 nM', 'solute_1e': '161.0 uM', 'solute_2i': '263.0 mM', 'solute_3e': '11.0 nM', 'solute_1i': '130.0 mM', 'solute_2e': '49.0 mM', 'solute_4e': '16.0 uM'}"
voltage,largest element,smallest element,element difference,element ratio difference,condition number,transport error solute_4,transport error solute_3,transport error solute_2,transport error solute_1,current errors,smallest eigenvalue,second smallest eigenvalue,sum absolute errors,sum squared errors
-150,51673341241890.227,0.00048727100418469161,51673341241890.227,1.0604641113080544e+17,1.9155895026693819e+23,1.6250978895671108e-07,4.5605721616829653e-10,1.670277222391367e-08,3.187958985684247e-08,8.833807810720795e-14,-3.678940346997857e-09,-0.00075836601251170002,1.677372087842952e-07,5.4452451601455079e-07
-140,51980795020393.062,0.00045724549967670724,51980795020393.062,1.1368246392177896e+17,3.9546365372647578e+23,8.14411261931651e-09,2.4210494279203945e-09,5.922152569796642e-09,9.463447428470495e-09,8.935853576353938e-15,4.8098501070788214e-09,-0.00070476460401275884,1.5549647538603398e-07,5.2934981192914359e-07
-130,52290710194844.375,0.00042907015845202232,52290710194844.375,1.2186983681991813e+17,2.4126501928971605e+23,9.039206428328173e-08,6.462313394692623e-09,6.2574365516628386e-09,2.300160224441572e-08,4.6476373406696606e-14,1.2321714865623785e-09,-0.00065692677095780753,1.1251456646811752e-07,4.0332442224132534e-07
-120,52602995423750.484,0.00040263097396084,52602995423750.484,1.3064815879979136e+17,4.6277368128857486e+23,5.476702643345335e-08,8.602515626137053e-09,1.9945163042857372e-08,2.8591050398735218e-08,1.50120923610807e-14,-9.5114033590265872e-09,-0.00061883910649643671,1.642519303739617e-07,4.8935684117630256e-07
-110,52917577255146.984,0.00037782096470542954,52917577255146.984,1.400599283748177e+17,6.714371654231669e+23,3.745094104889231e-08,1.552466246233768e-08,1.5028034739761678e-07,3.999748490052246e-08,2.181185147499323e-14,-6.1000278903645287e-08,-0.00058667399607550128,3.7245014377678371e-07,1.1959740851972589e-06
-100,53234397031325.258,0.0003545397413583616,53234397031325.258,1.5015071886544026e+17,8.9069342223289163e+23,1.3749279661857088e-07,4.083931134906024e-09,4.699411758736852e-08,1.887325771186832e-08,6.399186785467077e-14,-2.2040382806746945e-08,-0.00056176942704208187,2.5162916146233495e-07,6.7432975261157164e-07
-90,53553408331287.625,0.00033269310055479719,53553408331287.625,1.609693986499337e+17,7.1155202236581062e+24,2.4842631588667397e-07,2.9830528906014544e-09,4.3416035324164715e-08,2.1269227013301362e-08,1.206916955161194e-13,2.6799313189231235e-08,-0.00054688218059521245,4.0296671898009819e-07,8.0615915779887402e-07
-80,53874574857527.633,0.00031219264371518379,53874574857527.633,1.7256836745544173e+17,2.6082667631748399e+24,1.3618668891224565e-07,6.1526612113840104e-09,1.81194911581372e-08,1.5812183761128307e-08,6.045017693527781e-14,4.6317654878584257e-12,-0.00054452981417275599,1.5240685031012008e-07,5.0698274928868712e-07
-70,54197868689955.148,0.00029295541935599152,54197868689955.148,1.8500380982573789e+17,1.576890341707898e+24,4.122829095026641e-08,5.55827683573379e-09,3.100991692616718e-08,3.944577423031781e-08,2.6849365657376335e-14,-1.0350674277818052e-08,-0.00055794281403084996,9.503790170011391e-08,3.4309464529946638e-07
-60,54523268843193.102,0.00027490358744116294,54523268843193.102,1.9833596698647158e+17,1.5572167532743328e+24,1.2336345655856312e-07,1.4646170841823502e-09,1.6159002310918782e-07,6.626345464433997e-08,6.738345584302172e-14,6.3404625207379891e-08,-0.00059151219606900227,1.4174261785951002e-07,4.4246124083349017e-07
-50,54850760074550.023,0.00025796410441613341,54850760074550.023,2.1262942841872221e+17,1.0696461856326603e+24,1.240867520588794e-07,1.520632118786411e-09,7.244430161551345e-09,2.3218734777289557e-08,6.027000274550546e-14,4.3276204577373702e-09,-0.00065120498125028541,1.9824011078196701e-07,4.5639261600986702e-07
-40,55180331899125.812,0.00024206842764996781,55180331899125.812,2.2795344454798896e+17,1.5620023275705125e+24,6.893425596861812e-08,6.344982166624507e-10,6.694798670867303e-09,5.801433247505167e-09,3.441490242702067e-14,6.9354953963365342e-09,-0.00074517528948266011,1.1333726375667025e-07,3.1203690049032256e-07
-30,55512008280731.773,0.00022715223808969203,55512008280731.773,2.4438239635047146e+17,1.3037018115959818e+24,1.7302922925127033e-07,4.587270206407225e-09,9.275766149315426e-09,4.710149877767966e-09,8.617264265947054e-14,1.6845531116665393e-09,-0.00088447117619046148,1.7609542006141397e-07,5.6653205336126041e-07
-20,55846031138561.539,0.00021315518000458657,55846031138561.539,2.6199706306625939e+17,1.4487183623648953e+24,7.156883284671562e-09,9.546906261721616e-10,8.936340418195556e-09,6.157275199685647e-09,3.4780474563238792e-15,5.0057773038047922e-09,-0.001084106189031159,8.9442012644664671e-08,3.1325006827162617e-07
-10,56182065116637.469,0.00020002061676736575,56182065116637.469,2.808813712537448e+17,2.0424839794911301e+24,2.5821272554241853e-07,4.294709130153969e-09,2.4921028645764377e-08,4.663360644689696e-09,1.2574743443431202e-13,8.0635448992676415e-09,-0.0013645434363710736,2.3741923852913651e-07,6.3782553372488152e-07
0,56520122299723.445,0.00018769540168405249,56520122299723.445,3.0112683524801382e+17,2.5403719823927983e+24,1.2612679496826956e-07,8.367855319256633e-10,6.6142590286104655e-09,5.482182635152891e-09,5.945237278455089e-14,-3.3655885036238031e-09,-0.0017537053342988487,1.3886088069895235e-07,3.5075431160546631e-07
10,56860214845656.641,0.00017612966294525332,56860214845656.641,3.2283156564792038e+17,1.18351677917601e+24,5.3535461399118524e-08,1.6237050043207453e-09,5.224403776141282e-08,1.5579713109892257e-08,2.6871145018873976e-14,-1.5623479491446968e-08,-0.0022896595308802142,9.8519633131473824e-08,3.4442061035275682e-07
20,57202354985780.586,0.00016527660182867599,57202354985780.586,3.4610074476891744e+17,1.6340295885840201e+24,1.9672743839110206e-08,6.953232108618281e-09,3.440104492282293e-08,4.96510002730155e-08,2.4211784340396825e-14,-3.6159338372026004e-08,-0.0030239884850076183,1.1481254736308856e-07,4.063227546352531e-07
30,57546555025381.109,0.0001550923033363522,57546555025381.109,3.710471363661328e+17,5.6855494019058057e+24,4.851453128877828e-08,7.66047497097899e-09,3.209771026724782e-08,2.7010629501285355e-08,2.8127501669063445e-14,2.2730725515530971e-08,-0.0040263079711938049,1.4501723015485374e-07,5.1427695638119727e-07
40,57892827344124.992,0.00014553555850034249,57892827344124.992,3.9779163209786118e+17,2.5848677905872417e+24,6.32529891639486e-08,1.9184688359509163e-10,7.842179451395676e-10,2.5322966101579027e-08,4.062635150722194e-14,1.8784589794184388e-10,-0.005390686316933028,1.0615159861550537e-07,3.5111587978845619e-07
50,58241184396501.305,0.00013656769763791413,58241184396501.305,4.2646383737769261e+17,4.696275849060744e+24,1.8793720821944486e-08,5.434582665000764e-09,5.1918187606503005e-08,5.987785965352096e-09,5.250325990438104e-15,4.1009706288153705e-09,-0.0072447462816740936,4.7131534690042728e-08,1.8811432297519289e-07
60,58591638712265.695,0.00012815243388148917,58591638712265.695,4.572026994543792e+17,8.5114522104582386e+23,1.573717984710176e-07,4.682070516019904e-10,8.653495963415261e-09,1.3738040387987994e-08,7.3395813881443e-14,-8.1591042639203311e-09,-0.0097623576844740861,1.4996167698714143e-07,4.1503973694035828e-07
70,58944202896887.258,0.00012025571635023346,58944202896887.258,4.9015718076318144e+17,1.3028590709069097e+25,3.826217895704044e-08,1.9812063030263676e-08,1.0918267074732507e-07,2.351612374616827e-08,2.68675080720582e-14,4.024284785558604e-08,-0.013179348108537027,8.3937671097360936e-08,2.6374364226829465e-07
80,59298889631998.297,0.00011284559236917213,59298889631998.297,5.2548698081182605e+17,1.195582034895435e+24,6.912161848802609e-08,4.39488403798382e-09,5.230763652005078e-08,5.2265031597991925e-08,4.306709202645436e-14,4.6915081734128686e-08,-0.017817072492075568,2.7739469689217182e-07,9.8297422036579057e-07
90,59655711675847.047,0.00010589207817832466,59655711675847.047,5.633633100994153e+17,2.6730128525716945e+24,5.3670508250980276e-08,1.1689866549632217e-09,1.7079549728400527e-08,2.0259044591742852e-08,3.162221473331282e-14,8.2199647900359218e-09,-0.024112481869710881,6.2525419826602642e-08,2.8166120175227464e-07
100,60014681863752.945,9.9367037608707692e-05,60014681863752.945,6.0396971981877581e+17,3.0848862971877698e+24,7.527591466031733e-08,1.93097003732852e-09,4.326747730367883e-08,7.763792791460071e-08,3.4475484568998076e-14,1.3201086913299699e-08,-0.032660017151981385,1.2236168741198475e-07,4.7175934524388386e-07
"{'distance': [0.1, 0.105, 0.343, 0.71, 0.726, 0.832, 0.991], 'solute_4': [6.64, -1.17, 5.56, -18.18, 4.94, -7.28, 11.36], 'solute_3': [15.05, -11.23, 8.37, -14.32, 6.48, -17.66, 7.51], 'solute_2': [13.13, -12.15, 15.81, -15.26, 7.37, -19.46, 18.56], 'solute_1': [7.9, -7.52, 8.01, -12.0, 6.11, -6.72, 15.71]}","{'solute_4i': '354.0 nM', 'solute_3i': '79.0 nM', 'solute_1e': '161.0 uM', 'solute_2i': '263.0 mM', 'solute_3e': '11.0 nM', 'solute_1i': '130.0 mM', 'solute_2e': '49.0 mM', 'solute_4e': '16.0 uM'}"
voltage,"current, barrier 0","current, barrier 1","current, barrier 2","current, barrier 3",solute_4 transport over barrier 0,solute_4 transport over barrier 1,solute_4 transport over barrier 2,solute_4 transport over barrier 3,solute_3 transport over barrier 0,solute_3 transport over barrier 1,solute_3 transport over barrier 2,solute_3 transport over barrier 3,solute_2 transport over barrier 0,solute_2 transport over barrier 1,solute_2 transport over barrier 2,solute_2 transport over barrier 3,solute_1 transport over barrier 0,solute_1 transport over barrier 1,solute_1 transport over barrier 2,solute_1 transport over barrier 3
-150,-1.6292801498804564e-10,-1.6289902435093311e-10,-1.6290051330413702e-10,-1.6283967690993843e-10,-0.0002596638638010518,-0.00025959869930830375,-0.0002595959600688127,-0.00025950135401209506,1.6726347347170167e-08,1.6485693564700194e-08,1.656388267062355e-08,1.694175078086849e-08,-0.0001748830199517215,-0.00017489857292284124,-0.0001748996406888871,-0.00017489972272394542,-2.1056974219391122e-05,-2.1056552412052065e-05,-2.1062059905763153e-05,-2.103018031590631e-05
-140,-1.0282947738715602e-10,-1.0282811785781291e-10,-1.0282805357672886e-10,-1.0282054153357966e-10,-0.00028389117989036095,-0.0002838890636382022,-0.00028388977258455303,-0.00028388303577774163,1.5028849283590657e-08,1.4856536276113626e-08,1.727758570403402e-08,1.6600465362919176e-08,-0.00015255220171184192,-0.00015254987433179298,-0.00015254627955927212,-0.0001525473115465371,0.00012077627707185457,0.00012077627128079249,0.00012077510870489583,0.0001207845721523243
-130,-6.402463561523915e-11,-6.398206448181803e-11,-6.3982160830373e-11,-6.397815924183245e-11,-0.0002545478989190997,-0.0002544575068548164,-0.00025446047828576665,-0.0002544710162417603,1.2936708974125243e-08,1.2823475248055965e-08,9.77513027227873e-09,6.47439557943262e-09,-0.00013307107184346023,-0.0001330773292800119,-0.00013307304668999732,-0.00013307414767838813,0.00016568247576742579,0.00016568278639727402,0.0001656851459376496,0.0001657054773696702
-120,-4.097935580812154e-11,-4.0972595558651885e-11,-4.097163731366983e-11,-4.098664940603091e-11,-0.00018086326480215575,-0.00018084845297859295,-0.00018084952522028986,-0.0001809032200050264,9.952679295609294e-09,1.0305341475185832e-08,1.7796390987414994e-08,1.8555194921746347e-08,-0.00011831179944010728,-0.00011831429579029825,-0.00011832207347502427,-0.00011833174460315014,0.0001350301396314535,0.00013503010864078513,0.00013503327027895168,0.00013505869969118386
-110,-2.7026079682197782e-11,-2.7034388850726844e-11,-2.7024871514957014e-11,-2.701257699925185e-11,-9.615852627575805e-05,-9.616296066992935e-05,-9.615769830694193e-05,-9.612550972888046e-05,6.198517990086287e-09,6.9205030061802005e-09,2.047087160120909e-08,2.1723180452423968e-08,-0.00010823746487176322,-0.00010827846457384154,-0.00010832957419595901,-0.00010838774521916084,7.600157493925508e-05,7.600214608279032e-05,7.602920650004452e-05,7.60415724241556e-05
-100,-1.9172845728659167e-11,-1.9211251611140588e-11,-1.9208043495879492e-11,-1.9236837596513837e-11,-3.854940302971954e-05,-3.8626192475625654e-05,-3.862942411073404e-05,-3.868689582633811e-05,4.0629102381797545e-09,3.381851646262593e-09,6.108080231339365e-09,7.465782781168617e-09,-9.836575384269963e-05,-9.8374512923961e-05,-9.839355213396898e-05,-9.8412747960287e-05,3.14430716912284e-05,3.14430954857052e-05,3.145844001071173e-05,3.1461944948940265e-05
-90,-1.4852393133409603e-11,-1.4731701437893483e-11,-1.4738688453181285e-11,-1.473730400019443e-11,-1.3204984455228441e-05,-1.2956558139341767e-05,-1.2957266726261972e-05,-1.2969486951714161e-05,1.8541262657529526e-09,2.2979825696258977e-09,-6.850703209755567e-10,1.9164071449000696e-09,-8.540467840134625e-05,-8.539691849558437e-05,-8.537171766799532e-05,-8.536126236602208e-05,1.076873667216205e-05,1.0768702892341095e-05,1.0747467445148748e-05,1.075821608699859e-05
-80,-1.1452690493249283e-11,-1.1501076804334696e-11,-1.1500608882392541e-11,-1.151314067018456e-11,-3.905181742425157e-06,-4.009599010252121e-06,-3.995131265026753e-06,-4.041368431337402e-06,3.766035796635761e-10,3.8667952870133174e-10,8.363900511580837e-10,6.5292647910475865e-09,-6.988941032659568e-05,-6.987782525152546e-05,-6.987864701701027e-05,-6.987129083543754e-05,3.3715419363034016e-06,3.371415187736898e-06,3.35804508118636e-06,3.3738572649474885e-06
-70,-8.558257656446233e-12,-8.577821999250832e-12,-8.574758661756908e-12,-8.550972633593456e-12,-1.1533786903328291e-06,-1.1904195622788882e-06,-1.1946069812830955e-06,-1.165478376216924e-06,8.901018527460248e-10,8.945802187764284e-10,-2.1239070922493986e-09,-4.663696616957362e-09,-5.296769461438089e-05,-5.298149787745923e-05,-5.2992929094967814e-05,-5.2998704531307056e-05,1.0015360487614089e-06,1.0024683533048709e-06,1.0178463262125828e-06,1.0409818229917267e-06
-60,-5.692971334103327e-12,-5.625587878260305e-12,-5.6432819003014504e-12,-5.656534409634322e-12,-4.7166091121653153e-07,-3.482974546579684e-07,-3.5416538292521994e-07,-3.829668569864616e-07,2.762507223182006e-10,3.0551578409651046e-10,-5.366919452673651e-10,-1.1591013000858397e-09,-3.521035878861767e-05,-3.515963339449238e-05,-3.509616278753126e-05,-3.504876876550848e-05,3.6280508197705785e-07,3.627303466861853e-07,3.109056166137117e-07,2.965416273327179e-07
-50,-2.6567167780939505e-12,-2.596446775348445e-12,-2.5980169472465457e-12,-2.6096285404570003e-12,-2.2861492254833138e-07,-1.0452817048945198e-07,-1.0528219415443197e-07,-1.1134434525574225e-07,-4.321037289397361e-10,-4.191501992104894e-10,5.414022102857563e-10,1.0885283898466749e-09,-1.6190361833423594e-05,-1.61894312753477e-05,-1.618608892874467e-05,-1.6183117403262043e-05,9.762950980984897e-08,9.86340024165637e-08,9.468661884078658e-08,7.541526763927414e-08
-40,6.936678336152698e-13,6.836172053947337e-13,6.815765528598472e-13,6.592529311882491e-13,-1.072375255262159e-08,-3.09723679550733e-08,-3.160367224635236e-08,-7.965800852123971e-08,1.1582862707335093e-10,1.0673127450762125e-10,-2.8010428486469213e-11,6.064877881759815e-10,4.252984382446812e-06,4.249039318339416e-06,4.2557341170102836e-06,4.253140572463786e-06,3.636083079072705e-08,3.7014832055329294e-08,3.121339880782413e-08,3.34712672309459e-08
-30,4.2146892605059855e-12,4.291628056002392e-12,4.292778532380701e-12,4.300861903165456e-12,-1.6988180107091466e-07,-1.1491488422507926e-08,-9.525207089228711e-09,3.1474281803556673e-09,2.9229387255586743e-09,2.908108848279975e-09,-1.0454333761099926e-09,-1.664331480848551e-09,2.678362875485618e-05,2.6787439850294587e-05,2.6788467099707222e-05,2.6792904521005497e-05,1.0671811878637527e-08,1.110512335322951e-08,1.2508106453476726e-08,1.5381961756405493e-08
