"{'distance': [0.167, 0.333, 0.5, 0.667, 0.833], 'solute_1': [8.0, -10.0, 8.0, -10.0, 8.0]}","{'solute_1i': '1.0 mM', 'solute_1e': '1.0 mM'}"
voltage,current,solute_1
-150,-0.21023098434329710870306484179836545438874478280648653420010931881013387051219538,-656151.63652714456719094240044239343614969072259482701261614823761792256330227768
-140,-0.18373026260504829922580020710148222796593930408627428622503311470538569254197085,-573440.27030289734242005964158430549836533280709340320389339655996930431242420235
-130,-0.16049833268558699835840201471538056704737902970434401507011954170420261682839501,-500931.12573529028236537126448571481422933558857606425976929656362631608854297043
-120,-0.14011201587290627158863927394997194053168516977077231963727397451582269128686169,-437303.42032742284229024144197572581241186379779940592140233229468099253212058059
-110,-0.12219488576830093702151825719923221260695621020187752304691752504249845965871924,-381382.29016323640198862139191670083563163402857196111574352020376752505121385488
-100,-0.10640836653128671997368114691853165612028545485358468435278295855382361352441065,-332111.00665195607163382827572541711631680811948442960779460584640566272056524015
-90,-0.092442393024875125145097594729223624644466819084722298236492611350415490953619197,-288521.82592033436272492325702662646696787936734170933631163488273281304653886955
-80,-0.080005021332574562349000433945987492941584562039907621275763560738302931705489755,-249703.56221153110609361111465386258601044307336576909446631934481858762047813247
-70,-0.068810449195386758761655756397667860897581051577412900298624986067934037817266956,-214764.19848747428913633961490933298933364391861968331420505138626957999319360151
-60,-0.058565550279411343463968921925073361646152867879467180666984175754487680121545556,-182788.8585499729913352903407930632455901493592484983509887699517544860495226662
-50,-0.048957163132594529219320122928838907486770839387985910098449198448170298975254674,-152800.13462108155959293911068897558626136352097599053341306309139912527886917581
-40,-0.039647440257684710328500133571020166154894120292825555902138269698858771617944357,-123743.57134108836558130908356820777153830691405736717206723460685316280788434024
-30,-0.030292858893100504159072605028301684841431097488022316882146020113096872300217882,-94547.000290575860455838067270449629647227030012375059950335503103514739911703182
-20,-0.02060712290814563958670734976413644159532885996483248213449603203166654172553225,-64316.863009193634919399423406420948044158198577383490399331881602845359809697963
-10,-0.010467430960750999496680289659218209434815342292960819272040645753077463886998883,-32669.884396850811565843451621791732992553761278416480858760428989050931319426428
0,0.0,0.0
10,0.010467430960751000077739432724217370501105076389483946700038061771879327657174555,32669.88439685081337938634508308758328148716534037213446097827996645600982174113
20,0.02060712290814564187455758215451695656745308169646085221728143645672217772514874,64316.863009193642060005641853301817577006381374387761715806044289676783255375849
30,0.030292858893100509083480728444859074775975473657903813412924410664535096464212075,94547.000290575875825401498657957865634628163949342677403036720506967580062931038
40,0.039647440257684719132000341877404129063405945580405169259971792695805352380072763,123743.57134108839305790149401260355128448947399128807843840630742287803503313634
50,0.048957163132594539748766710202622876714865018995951864906892408266745515657272255,152800.13462108159245638039431501959805371288739814147231109873155298661300285834
60,0.058565550279411362585841737755435038344135039409840354951032276312392904167327041,182788.85854997305101654132653077436638541886504577976231260279965099533392040286
70,0.0688104491953867812566215940525061330296428693787303548330147009059185644253639,214764.1984874743593453465988507793345596882465794657494679576438165097409530315
80,0.080005021332574597878367141566436449795765786463094187328943534511328999240327282,249703.56221153121698426875391869015305536036753461369779261427992470974419785897
90,0.092442393024875165158995218038129394792997825305225137468203962261060114313643786,288521.8259203344876122441787148530350711961482819498828311251236318154248769673
100,0.1064083665312867660982664267381181125082194003624257971145670475044878085697015,332111.00665195621559320805044323480510951903158910929684331156899652570480284073
"{'distance': [0.167, 0.333, 0.5, 0.667, 0.833], 'solute_1': [8.0, -10.0, 8.0, -10.0, 8.0]}","{'solute_1i': '1.0 mM', 'solute_1e': '1.0 mM'}"
voltage,largest element,smallest element,element difference,element ratio difference,condition number,transport error solute_1,current errors,smallest eigenvalue,second smallest eigenvalue,sum absolute errors,sum squared errors
-150,15874508.55839197316164204934914619431751203021276563561407558846341354394136848,12522.84539880608081272830834132693143588450550445918159189310007279112055549179,15861985.712993167080829321040804867386076145707261176432483695363340752820812988,1267.6438982394079171797459269365618123674472300719871203076668751351884922361387,867085978.08978875666732938582072584178244380541218886172573106198089627095788482,2.2108591501041778240989060768769022902056960932956880345660680883631595016095813e-75,7.9066484574228924182614305384525142557824710367763806625583222688311082182273197e-82,15875423.136561861360425597573765211451881890433217650735309614246329580347280784,-2.0826570130870679363264105518985220229011567592088869687350569242490793312694947e-76,1.5744455530216550852139863052226270545960072765904616259003964377089500129387547e-75,2.501209936748457543639118493431842272611811178923212542891122419274031466790418e-75
-140,13893074.973060590619455395038441682775206701620991930728850168595896323845770569,14312.80524324047572569334378442036683794718985099137118496012817963023357389975,13878762.16781735014372970169465726240836875443114093935766520846771669361219667,970.67449301190543464005258937414443628728427894011424289073031478134629756501848,763475496.64964835955005251794567424097472005511544177962079276173505967545876271,1.1054295750520889120494530384384511451028480466478440172830340441815797508047907e-75,5.2710989716152616121742870256350095038549806911842537750388815125540721454848798e-82,13894497.458858599932614880578752651664013586952888314125093529007841998587849395,1.4469618696984718286707791962105834070769477920632753777798742058389464323008608e-76,7.2069719442857492757243851394806829104085427778159727092903409688865643417895728e-76,1.2090324253417161105323699648944050693702157069327300832743366754445646153521702e-75
-130,12159859.929976846365577377396594660598805372193776244056273155650160443047733366,16358.61398963393068986452056300621746189504345850823319216762926451144294830112,12143501.315987212434887512876031654381343477150317735823080988020895931604785064,743.3306964564518659952630987219642431433756882934566896644809582538688850982242,673349346.7426187531974747920155310151149395285970902431593912207024462342010363,5.5271478752604445602472651921922557255142402332392200864151702209078987540239533e-76,2.6355494858076308060871435128175047519274903455921268875194407562770360727424399e-82,12161918.549481968684091243903055744398627449953338987768687862233315613117069484,5.0959594952682723030342747970015532358852316952277687383479780793456354945511507e-76,3.0476138692710492581456750310762942468283464816527121949270351383494236738721016e-76,4.8502755132631931423701504918346542604089356253986470814735477444561518495291935e-76
-120,10643897.152050475247571032593903602349392431703448231881663608875508188831240457,18696.841542522124424460672636237564933786903383158600810821584224982436801399221,10625200.310507953123146571921267364784458644800065073280852787291283206394439058,569.28851473887277647554913926180725734122231834008056477060592016412991185512586,595115740.69446260970208700068566854017630268921160511111460294547885490878450851,1.1054295750520889120494530384384511451028480466478440172830340441815797508047907e-75,2.6355494858076308060871435128175047519274903455921268875194407562770360727424399e-82,10646784.357225881059480282119842167627174184515679468222621189011638282546421819,1.3112736351105412257897585282380032085492373319115479216255580898394026589208154e-75,7.8028341678398728150400270174263436551636992137685616425814535534912152988696612e-76,1.2909375747069011732160596369848743648465259574320587005595743906286374260799322e-75
-110,9367066.2452489342753518714147372987418820029648579471140062252460041540869985909,21369.284946004380582654265081151508028148807122064619916169059075477892098406548,9345696.9603029298947692171496561472338538541577358824940900561869286761949001844,438.34252147030236337350638598610894645430345576238204810160653612299322327396602,527392934.25063127596907932128271412404139031319544830771266529644479272135415201,1.1054295750520889120494530384384511451028480466478440172830340441815797508047907e-75,2.6355494858076308060871435128175047519274903455921268875194407562770360727424399e-82,9322109.5883870546189960492824161616614205085137125707980972102927518772770923923,-1.5393039830884028702688608846254067570757130514651796980850086499100444388353027e-75,1.7877570335363497952022972202254513115171605762255861992024067004995213189055278e-75,2.0821190181807141279733315791145152779852659366862300518683176425353116361894587e-75
-100,8321763.4592284625331858562409383164642107749270399053139884478457335307559845935,24423.715527832937641774875185702751209230571133294244944180880262903012280963732,8297339.7437006295955440813657526137130015443559066110690442669654706277437036298,340.7247128204180419741422439186395226704196794490271764457215914564541552649581,468984822.52177523617151108165272500717494986173386431845809451017164328322753688,5.5271478752604445602472651921922557255142402332392200864151702209078987540239533e-76,2.6355494858076308060871435128175047519274903455921268875194407562770360727424399e-82,8164365.880776903211291686735938910147292899295501817024835452274893613712562684,-1.3009341086707128639821354038370772797630866707705893818429830849143988380960207e-76,2.881076286990144009059630932356073345414704775055861871511710508728639268151833e-76,4.6313583938766971284870528798555770417103288596177701538673573193900095290363452e-76
-90,7425216.5604867720677709374727651998674547227091775692012761921424426284637765188,27914.732836956449862790476702366224540062771304485257925361389740862284135653381,7397301.8276498156179081469960628336429146599378730839433508307527017661796408654,265.99633261245086816280604279053270045500933193664381729853846978116169687190221,418859814.64973204397344215298677739863065004377561108533085118015985438562479779,1.1054295750520889120494530384384511451028480466478440172830340441815797508047907e-75,3.9533242287114462091307152692262571278912355183881903312791611344155541091136598e-82,7153104.0008033985636227304594743580292929680846205446953806105929035962204480083,-1.1768994148460063921799560085637952369919068242961229474921608638674925612299205e-75,1.2506810130760031231441163648925842353710256262580208064703162947330568265131458e-75,1.5933591981790627324893323280054125112654149989541585334876804781856286036454284e-75
-80,6661399.3028967307193244038265285622251981156659621142034704771526895440149236319,31904.740639099404469950954951280895980725324872112441464034856845071687331635807,6629494.5622576313148544528715772813292173903410900017620064422958444723275919961,208.79026657039034623274235560427178699306026678868143724793152389895121044515301,376132614.08312236536342808118218187685067816826663868572835339710517003608793502,5.5271478752604445602472651921922557255142402332392200864151702209078987540239533e-76,2.6355494858076308060871435128175047519274903455921268875194407562770360727424399e-82,6270674.5131949533745908559445356537168139769034794970613269324743433391773245326,3.8387786223343077385906814495433114853759673722636553097846281587621103529322327e-76,7.5076086065167124921804181551270778166874153081532883005921927434817719614838729e-76,1.0718220763827922413458569264601485385843034389230962133519990108328273141948061e-75
-70,6016658.0522943410741506201601414377755937535931616633158929707234066599414659548,36465.062416810310685004754709754174146929279420830379351770701797995698304629761,5980192.989877530763465615405431683601446824313740832936541200021608664243161325,164.99788163040893141528827227275988380615403391519495781015867620831814280830022,340048582.66990322308802201080976409865512781029266692606463408438060817540122076,8.29072181289066684037089778828838358827136034985883012962275533136184813103593e-76,2.6355494858076308060871435128175047519274903455921268875194407562770360727424399e-82,5502095.6556576929419796993932399992597169395568075075553243043136201059122474336,7.4433534043637832398603875689419711322662088070087493165948535386564638005812753e-77,4.3848156731846317730654091096403926316035779518363558414831116780373819063179492e-76,6.6843412547069124605430629932368344856102709800534288409288082158743672694684716e-76
-60,5479467.7206056024825450988172617597263477581876977859479232452190368941410701458,41677.216314127228196069894707854185499835104841768645854959175727133931095544336,5437790.5042914752543490289225539055408479230828560173020682860433097602099746015,131.47393720602784523782552743152790086520597404576899907327528503389672168323039,309970412.4090159470278614476553940829653458531868115780570526350667193415646111,8.29072181289066684037089778828838358827136034985883012962275533136184813103593e-76,2.6355494858076308060871435128175047519274903455921268875194407562770360727424399e-82,4835192.5701870186956063937991437290583986170747124158167533195130047313298958955,-3.8759753502683254400293320605692629776783222404688154061908165091391765889129028e-76,5.12012711689891544560874725197385643953465923858677300313175000928074417778336e-76,6.869722779031300009243144144292810864142623663784587966764903503968674443199604e-76
-50,5040225.7488513463386940213805240646971954100881043461847637837883677936367244437,47634.372316165409407712301959757770265087695437871774627080428936682668394297621,4992591.3765351809292863090785643069269303223926664744101367033594311109683301461,105.81068887394309661837744523440286184675200787573968890976510696850100731708228,285366869.46062284619515438846856165845864741215552554661591504023375560168569377,1.9345017563411555960865428172672895039299840816337270302453095773177645639083837e-75,5.9299863430671693136960729038393856918368532775822854969187417016233311636704898e-82,4261308.8504853536734019022429730668147853829032747297241234909375038858896195545,-3.6710737692047893917686698424403215729392295486207744677319807348186381043647681e-76,6.0019974750541934786346144987259194908252035851648779275903435437614412469038745e-76,8.0827907284067441222445574179396697529704628214427574621570389075736535541570924e-76
-40,4691080.4563681507593660421413385098315786502588413079111391264275929777179605807,54443.01771147648274371631855926578131012178710956763039674801600343254395011047,4636637.4386566742766223258227792440502685284717317402807423784115895451740104702,86.164960238405008179349770667584811920058861050833216983501707956486281226142457,265803411.61418660701711184949042427113327425137839937631861067351866317428631171,1.2436082719336000260556346682432575382407040524788245194434132997042772196553895e-75,3.9533242287114462091307152692262571278912355183881903312791611344155541091136598e-82,3777291.7475263256523677950541389073942925599363152840893123116671858620558268197,-9.1342724285195014957726702023720831666153973893686119740124506606584657494752566e-76,1.5883950258168155349614571485223342721815588266496245499329837979249794309835814e-75,2.2249623086049778450396029105180107914513070484630740304406065680239363411931341e-75
-30,4425790.6878976380408863200776785944755172310532795706444072200399730339857155024,62224.860608192629484369437166230363668397982705375387499285455472422618117540959,4363565.8272894454114019506405123641118488330705741952569079345845006113675979614,71.125762993110361711130800655131277640065658472767500590419559391609004524336637,250934513.50223565899234462155904544885361350559355179968013870928644910284984156,1.1054295750520889120494530384384511451028480466478440172830340441815797508047907e-75,3.6238805429854923583698223301240690339002992251891744703392310398809246000208549e-82,3390259.281320087236418244419112321720230938832905005056868102653817278255087934,-1.0207325811853227445368558842256371351730544413987552941338179735339364402639879e-75,1.0262380966064471647166868380869426610296562005935410864582373605652057651315403e-75,1.5067879145700495979703777409008014396592236543516867077656656332890026728934724e-75
-20,4239614.2496622314872153432555064322825875171258307719795468873502277709937395917,71119.005530305245105875796189748807964165713955182367155603905588415279273468498,4168495.2441319262421094674593166834746233514118755896123912834446393557144661232,59.612957437314645809992118636207614555411607758303288518219976562880513818296911,240497564.00947757834552788554275329454399259686207837347159664339355691879536717,3.316288725156266736148359115315353435308544139943532051849102132544739252414372e-75,1.054219794323052322434857405127001900770996138236850755007776302510814429096976e-81,3127728.2957636199297555666298457245267783018718941026428444358774780380197724522,-2.0063336349275891800471206738977410326683363691259702911323114955099011828152001e-76,7.1929385856347379448481871827457211987662062768984693519954876325547837197603367e-76,1.0897233613497864337452578712175113218434017867301549507726977186764083855042756e-75
-10,4129223.140163715369545291891048153056940980272846317456218731134853882591984834,81284.439984003033970361917632469755868290560087925282794921185694800953502015505,4047938.7001797123355749299734156833010726897127583921734238099491590816384828185,50.799675078973983779679001032554741326732936953669239830280235736954264892190149,234308228.09468019283367571452171859864913874069516381495721039866347782326961485,1.1054295750520889120494530384384511451028480466478440172830340441815797508047907e-75,3.4591587001225154329893758605729749869048310785896665398692659926136098454744524e-82,3054505.6179617142213722323271092204041677357419034655317443006847485459083199461,1.2886449000744669277182659249683019417447776710779406166888254168808374048311828e-75,5.5252887986293124858505430054678160692013930698896076822067992993875043886088293e-76,9.4152683724536053691904267230043283792258075738378844945400913727719285876491799e-76
0,4092644.0604106444336209473345265044355929816313878961986438241245220143526456194,92902.876442747033460433438324456334359266544372428101542758556697575101967615413,3999741.183967897400160513896202048101233715087015468097101065567824439250678004,44.052931589613433033915801290568488732707025237113562148470852710450405637141585,232257191.10686758365108359581114083589816636093107025385689639174393775491903853,2.2108591501041778240989060768769022902056960932956880345660680883631595016095813e-75,7.083592716933785390413538735121802324717449583450394953056206343571536443517534e-82,3286773.4776490880803427417927129104493681388479467167839477660515675993233009585,-2.3430361649457598991378169026381019666205915714774408572793292671787697678392347e-75,1.2448515209991775664172549936508727244354807753435893031685601339458437922762996e-75,1.5938774122532884815604948615304910623380430371100290021249587257366114431842317e-75
