"{'distance': [0.201, 0.409, 0.741, 0.754, 0.796], 'solute_5': [6.73, -3.38, 0.81, -0.74, 7.8], 'solute_4': [7.25, -5.98, 1.78, -6.11, 7.21], 'solute_3': [8.26, -8.42, 10.77, -5.76, 11.26], 'solute_2': [6.13, -1.63, 10.47, -6.52, 7.89], 'solute_1': [7.47, -6.2, 11.05, -9.01, 8.01]}","{'solute_5e': '123.0 mM', 'solute_5i': '33.0 uM', 'solute_4i': '117.0 uM', 'solute_3i': '111.0 uM', 'solute_1e': '102.0 mM', 'solute_2i': '84.0 mM', 'solute_3e': '55.0 mM', 'solute_1i': '21.0 uM', 'solute_2e': '58.0 uM', 'solute_4e': '27.0 mM'}"
voltage,current,solute_5,solute_4,solute_3,solute_2,solute_1
-150,-2.4018659593463467,-4917960.472158551,-1169944.6272829792,-1324897.379296432,-2824.1235981056284,-161667.88987434728
-140,-1.8957517136715685,-3865366.709690571,-945770.950927167,-1049070.4052583121,-2054.3326142475607,-109131.34329136877
-130,-1.548129218704467,-3170593.4117025733,-799980.3258037276,-821753.6144188424,-1514.1898901011457,-76044.87332623478
-120,-1.3377086589300198,-2779927.163484812,-727923.8287458265,-637966.0192228702,-1144.4351931032031,-56318.42337356706
-110,-1.2426904811181967,-2637180.417143345,-726148.6021175941,-491754.47298966895,-881.3795168151358,-45189.36456875375
-100,-1.242065812096043,-2686456.7187371254,-792956.1505232725,-376897.3922578042,-662.6997717169934,-39273.87826936899
-90,-1.315967693222229,-2872696.3127428293,-928460.8700511649,-287507.44062773575,-430.11677551332605,-36340.43984414783
-80,-1.4446348576486994,-3138949.480381727,-1133885.1707470515,-218391.21696519817,-123.72760952514068,-34996.54922158227
-70,-1.6061584022922948,-3421041.6380283833,-1409885.0450861542,-165184.39587202706,334.50524243498865,-34404.41987937456
-60,-1.7739612348889802,-3642744.988579631,-1753657.6453588363,-124338.59143160442,1067.4498580614725,-34068.39709695685
-50,-1.9162580341970346,-3718704.110645056,-2154525.1660742546,-93032.72820188206,2278.9427854056516,-33694.51366247641
-40,-2.0005761627851566,-3575057.2011733055,-2587627.8327304153,-69058.29689050523,4300.064127212308,-33104.495287425365
-30,-2.003228290938107,-3187820.492824793,-3005300.4650012497,-50706.09266502343,7644.310082429882,-32180.65487628072
-20,-1.9154010067214426,-2611889.2852852345,-3327246.8018773943,-36667.96946143108,13060.745759376845,-30824.281650427147
-10,-1.7370609206851304,-1963111.02923882,-3439551.6514797397,-25958.006016986797,21549.057407511154,-28933.649490810192
0,-1.4693876874419485,-1359667.6381965876,-3229626.914686002,-17848.398896553626,34251.96495830904,-26425.813137037352
10,-1.1274902045678847,-873861.6043432951,-2673796.3454065286,-11808.677557754312,52108.141282789504,-23299.286176919657
20,-0.7607981883695497,-524331.3184602261,-1908178.0226021074,-7441.065348940366,75267.41449881931,-19686.378032454886
30,-0.43797989395231507,-294886.3525365293,-1162345.65403774,-4418.88090338617,102597.55328199801,-15850.222696794464
40,-0.20302025028699727,-155929.05853542686,-600999.561924627,-2443.745767879095,131789.76659717027,-12127.249471291549
50,-0.057121373335316306,-77802.34884694219,-254996.10883970372,-1233.5240824771695,160165.76387161113,-8830.443951020512
60,0.02330892428892912,-36737.09870877117,-72543.69025182398,-537.7873086426491,185644.69554482534,-6153.335374339151
70,0.0641743750293673,-16352.367863681167,11645.918325867038,-159.57465754457328,207228.6356566113,-4136.115373395882
80,0.08390128359741228,-6682.947002127767,44981.280605870066,36.971505905809494,224880.82988617243,-2703.9079603533837
90,0.09314956245693755,-2253.7652113074437,54595.649131984625,135.40770682487522,239117.31866235685,-1731.2776525170964
100,0.09742163239543693,-281.8406161079183,54072.00359403191,182.7326127589648,250635.37528853415,-1091.495594658078
"{'distance': [0.201, 0.409, 0.741, 0.754, 0.796], 'solute_5': [6.73, -3.38, 0.81, -0.74, 7.8], 'solute_4': [7.25, -5.98, 1.78, -6.11, 7.21], 'solute_3': [8.26, -8.42, 10.77, -5.76, 11.26], 'solute_2': [6.13, -1.63, 10.47, -6.52, 7.89], 'solute_1': [7.47, -6.2, 11.05, -9.01, 8.01]}","{'solute_5e': '123.0 mM', 'solute_5i': '33.0 uM', 'solute_4i': '117.0 uM', 'solute_3i': '111.0 uM', 'solute_1e': '102.0 mM', 'solute_2i': '84.0 mM', 'solute_3e': '55.0 mM', 'solute_1i': '21.0 uM', 'solute_2e': '58.0 uM', 'solute_4e': '27.0 mM'}"
voltage,largest element,smallest element,element difference,element ratio difference,condition number,transport error solute_5,transport error solute_4,transport error solute_3,transport error solute_2,transport error solute_1,current errors,smallest eigenvalue,second smallest eigenvalue,sum absolute errors,sum squared errors
-150,38541422296599.984,753.95262197430566,38541422295846.031,51119156792.206841,27748270027024244.0,6.700865924358368e-06,2.348795533180237e-06,0.00015022465959191322,1.0200822089245776e-05,0.00014212809037417173,2.1540547123777287e-11,0.00015914683366884016,-4497605.3268760564,0.00020447584500999801,0.00031605754065822111
-140,38076307458228.117,887.60740208002812,38076307457340.508,42897690317.813614,28468841011291232.0,6.906688213348389e-06,1.553795300424099e-06,4.3947016820311546e-05,1.7834134268923663e-05,5.482908454723656e-05,9.986678151108208e-12,-0.0002387761621907772,-4809461.9160830043,7.2848574783681959e-05,0.00013082589725854632
-130,37772911219173.242,1044.9554484792368,37772911218128.289,36147867618.801918,64949182801338144.0,8.940696716308594e-06,2.0174775272607803e-07,5.66637609153986e-05,4.955195981892757e-05,0.00010767558705992997,1.975153374189631e-11,0.00010715052895482962,-5286850.2095171418,0.00013155097708172523,0.00022735009287089269
-120,37652386173029.43,1230.196916730976,37652386171799.234,30606796083.576424,1.3038008790053283e+17,7.79423862695694e-06,1.3883458450436592e-05,8.170027285814285e-05,3.08403764393006e-06,7.02237302903086e-05,1.1865397553378898e-11,0.00030404451861059648,-5947325.9575504186,0.00010663997696303964,0.00018740075392997824
-110,37739982985297.656,1448.2765328769626,37739982983849.383,26058547610.605957,1.0659928610305931e+17,2.210959792137146e-06,1.084781251847744e-05,1.4450459275394678e-05,1.7894860889100528e-05,1.3487420801538974e-05,3.611111409895784e-12,-0.00030657906023955035,-6814847.5187325785,2.5941912033332128e-05,6.3211728672740719e-05
-100,38065783459114.68,1705.0155850299579,38065783457409.664,22325768628.352947,91731610968248912.0,4.95370477437973e-06,3.2832613214850426e-06,9.507214417681098e-05,1.3393652807280887e-05,8.242859621532261e-05,1.5261569785707252e-11,-4.0388861492666348e-05,-7918421.9302337114,0.00012445019644817729,0.00020792853734974415
-90,38665566612307.008,2007.2673133909143,38665566610299.742,19262788944.133476,27487086185865748.0,1.2032687664031982e-06,1.1910917237401009e-05,0.00012712186435237527,0.00010248811850033235,3.423298767302185e-05,6.023181953196399e-12,0.00017669310043054746,-9286135.0872496143,0.00016199294144081776,0.00029118940113903591
-80,39581831837176.367,2363.0998465839748,39581831834813.266,16749961663.445858,5.8953037244975882e+18,1.1591706424951553e-05,4.9043912440538406e-05,0.00015386065933853388,8.037113548198249e-05,3.9618440496269614e-05,2.603517401666977e-11,-0.00016880139287550386,-10911134.247920822,0.00017979731089098693,0.00039487642402491474
-70,40865007572761.281,2782.0115675035049,40865007569979.273,14689014255.045795,1.564157439073305e+17,2.5451648980379105e-05,9.171338751912117e-05,0.0001913258747663349,0.00011829862887680065,4.3062143959105015e-05,5.256817203758146e-11,0.0001721989912223493,-12417570.655441979,0.00022938597533958449,0.00048518747411208096
-60,42574879066703.766,3275.1846575215263,42574879063428.578,12999230125.522758,90833363773923808.0,1.955777406692505e-05,6.106379441916943e-05,0.00010592331818770617,6.585371374967508e-05,8.822527161100879e-05,1.4709566897863624e-11,8.2984465798697726e-05,-12533323.806946987,0.00016181134989540197,0.00041277027548858314
-50,44782274883135.281,3855.783587014465,44782274879279.5,11614312336.914692,75533058565158144.0,1.8361490219831467e-05,0.00013853749260306358,6.887034396640956e-05,0.00019366604419701616,1.9494123989716172e-05,1.8390622358310793e-11,-0.0005190616988609418,-12009604.95199064,0.00026173358706784193,0.00060829219899005693
-40,47571058992897.469,4539.3065199385373,47571058988358.164,10479807605.841429,87949804166851776.0,1.9351951777935028e-05,0.00020191259682178497,1.5456113032996655e-05,0.00017763048708729912,0.00026997181703336537,4.976641321263742e-11,-0.00031331637504065642,-11342746.301696151,0.00038040121977628928,0.00091648016700673907
-30,51040483762193.937,5343.9990126394041,51040483756849.937,9550990492.6020966,6.4464403451450957e+17,2.5690067559480667e-05,0.00030462397262454033,0.0002929542970377952,0.00040625788824399933,0.00011829101640614681,1.5803491848487283e-10,0.00010342101328765225,-10608925.550521558,0.00063832404897255952,0.001696665371355266
-20,55307969170765.945,6291.341049927074,55307969164474.602,8791125569.5488091,52346029643698384.0,7.417798042297363e-05,0.00046215392649173737,0.0008546021272195503,0.0001444230838387739,0.00017887002468341962,1.270847871381875e-10,-0.0012502907867347525,-9835531.9921321571,0.0010288588711026983,0.0023383076069194431
-10,60512385418841.766,7406.6204190686067,60512385411435.148,8170040044.5863924,1.5720920786887225e+19,5.482137203216553e-05,0.000504632480442524,0.0011458668086561374,8.687557055964135e-05,0.0007854943833081052,7.050005024211714e-11,0.0012786266088856283,-9040641.352588091,0.0013328973743432549,0.0028854532276909595
0,66817930051692.141,8719.6077270043916,66817930042972.531,7662951378.5074072,38345202364352384.0,0.00023164600133895874,0.0008732769638299942,0.00021624092187266797,0.0002681289188330993,0.00018002952128881589,1.0154344032287099e-10,0.00057872827552920962,-8239462.8442075253,0.0010659317060228459,0.0027748445022268697
10,74418707229326.406,10265.351079297752,74418707219061.062,7249504342.7601261,48651194998673720.0,0.0014770025154575706,0.0011319667100906372,0.0009249186896340689,0.00043869754154002294,0.00012135533688706346,4.328961633603967e-10,-0.00066965206933485239,-7445802.1480184998,0.0025588772280315179,0.0065341819171180759
20,83544136254573.969,11964.627735938464,83544136242609.344,6982593867.390481,1.4336562992282462e+17,8.01384449005127e-05,0.006614360958337784,0.003757537464480265,0.000506853946717456,0.0004208773752907291,1.1600673754941226e-09,-0.0048220614977358689,-6672361.2180555081,0.0074778563765329695,0.014308236342074565
30,94465339486294.844,12027.005842684281,94465339474267.844,7854435320.1387768,62058126180286248.0,0.0006102025508880615,0.010842566611245275,0.004412784582200402,0.006423100363463163,0.0028190207958687097,1.6560237070528672e-09,0.012462702028227381,-5930629.023080973,0.012982640345342711,0.025229541202435257
40,107502686944445.7,9768.4187760038221,107502686934677.28,11005126767.14134,80686542601507408.0,0.0018827535677701235,0.005235066870227456,0.011602703329117503,0.014586388395400718,0.005670528298651334,1.991865894446221e-09,0.027825788138059148,-5230557.154054339,0.02006566242715109,0.04977343779859833
50,123034707014512.31,7489.8937221221768,123034707007022.42,16426762725.766932,64507890691673152.0,0.001520305871963501,0.0030845534056425095,0.00015586828612867976,0.0010988125868607312,0.0013080141216050833,1.3976757806677398e-09,0.002079496588489136,-4580105.3517111205,0.0058559239352436905,0.012712235906849223
60,141508610571298.22,5742.8442878075139,141508610565555.37,24640857992.916775,8.2145733631526118e+17,0.0028877162985736504,0.00025860522873699665,0.0017887792055262253,0.005839763907715678,0.001101428815672989,1.4475603840602425e-09,-0.0028420748114782153,-3984824.7756646848,0.0063326648893619365,0.012533775129186076
70,163452720618412.53,4403.3015337177312,163452720614009.22,37120492286.706635,4.6590938060555757e+17,0.0010832510888576508,0.0025270874612033367,2.3547639585785873e-05,0.006581866095075384,0.0007282863043656107,2.5783184059990916e-09,0.0075319612513943699,-3447699.5505683441,0.010505088286119872,0.020360041788678007
80,189491152422699.37,3376.2128006857761,189491152419323.16,56125358088.86512,2.3377367283989123e+17,0.00045782478628098033,0.0009258661884814501,0.0008275273953586293,0.0002166139893233776,0.0003177318185407785,3.0111733939630625e-10,0.0065184255012951135,-2969312.8741152547,0.0016939363686959918,0.0050873822862355089
90,220361151579952.0,2588.6968648931966,220361151577363.31,85124355257.039169,6.0992606456256778e+18,0.0015069907531142235,0.0020673143735621125,0.00013877199756962,0.001978987653274089,0.00037060664476484817,4.065798253627406e-10,0.0015533789895849658,-2548231.8867495088,0.0034893153419380146,0.0081594633717974041
100,256933571212922.78,1984.8723566674134,256933571210937.91,129445891243.2598,3.3817145228979866e+17,0.0007200659056252334,0.001935826032422483,0.003365428427144934,0.00299931297195144,0.000514323254719784,4.380274198911849e-10,0.0012467861943508893,-2181476.4031285672,0.0049763211041424912,0.011096928709197929
"{'distance': [0.201, 0.409, 0.741, 0.754, 0.796], 'solute_5': [6.73, -3.38, 0.81, -0.74, 7.8], 'solute_4': [7.25, -5.98, 1.78, -6.11, 7.21], 'solute_3': [8.26, -8.42, 10.77, -5.76, 11.26], 'solute_2': [6.13, -1.63, 10.47, -6.52, 7.89], 'solute_1': [7.47, -6.2, 11.05, -9.01, 8.01]}","{'solute_5e': '123.0 mM', 'solute_5i': '33.0 uM', 'solute_4i': '117.0 uM', 'solute_3i': '111.0 uM', 'solute_1e': '102.0 mM', 'solute_2i': '84.0 mM', 'solute_3e': '55.0 mM', 'solute_1i': '21.0 uM', 'solute_2e': '58.0 uM', 'solute_4e': '27.0 mM'}"
voltage,"current, barrier 0","current, barrier 1","current, barrier 2",solute_5 transport over barrier 0,solute_5 transport over barrier 1,solute_5 transport over barrier 2,solute_4 transport over barrier 0,solute_4 transport over barrier 1,solute_4 transport over barrier 2,solute_3 transport over barrier 0,solute_3 transport over barrier 1,solute_3 transport over barrier 2,solute_2 transport over barrier 0,solute_2 transport over barrier 1,solute_2 transport over barrier 2,solute_1 transport over barrier 0,solute_1 transport over barrier 1,solute_1 transport over barrier 2
-150,-2.401865959324806,-2.4018659593463467,-2.4018659593446188,-4917960.472160591,-4917960.472158551,-4917960.47215389,-1169944.627283751,-1169944.6272829792,-1169944.6272814022,-1324897.3791462074,-1324897.379296432,-1324897.379295683,-2824.1236083064505,-2824.1235981056284,-2824.1236007828265,-161667.89001431153,-161667.88987434728,-161667.88987218344
-140,-1.8957517136624191,-1.8957517136715685,-1.8957517136724058,-3865366.7096974775,-3865366.709690571,-3865366.709692167,-945770.9509256132,-945770.950927167,-945770.9509268915,-1049070.405214365,-1049070.4052583121,-1049070.4052582695,-2054.3325968708323,-2054.3326142475607,-2054.3326147049665,-109131.34334619786,-109131.34329136877,-109131.34329312501
-130,-1.548129218720919,-1.548129218704467,-1.5481292187011675,-3170593.411706526,-3170593.4117025733,-3170593.411697585,-799980.3258035261,-799980.3258037276,-799980.3258037278,-821753.6144737091,-821753.6144188424,-821753.6144170454,-1514.1899366695543,-1514.1898901011457,-1514.1898871175945,-76044.8732185592,-76044.87332623478,-76044.87332517447
-120,-1.337708658920227,-1.3377086589300198,-1.3377086589320923,-2779927.1634852765,-2779927.163484812,-2779927.163492606,-727923.82875971,-727923.8287458265,-727923.8287465157,-637966.01914117,-637966.0192228702,-637966.0192219992,-1144.4351961872408,-1144.4351931032031,-1144.4351933673024,-56318.423440974904,-56318.42337356706,-56318.423370751174
-110,-1.2426904811218078,-1.2426904811181967,-1.242690481121076,-2637180.41714124,-2637180.417143345,-2637180.417143451,-726148.6021284419,-726148.6021175941,-726148.6021183876,-491754.4729807029,-491754.47298966895,-491754.47299515334,-881.3795347099967,-881.3795168151358,-881.3795190751553,-45189.36455595214,-45189.36456875375,-45189.36456943956
-100,-1.2420658120807815,-1.242065812096043,-1.2420658120929404,-2686456.7187340492,-2686456.7187371254,-2686456.7187321717,-792956.1505208646,-792956.1505232725,-792956.1505199892,-376897.3921650108,-376897.3922578042,-376897.39226008294,-662.6997811471347,-662.6997717169934,-662.6997677534819,-39273.87835179758,-39273.87826936899,-39273.87826984633
-90,-1.3159676932178654,-1.315967693222229,-1.3159676932238886,-2872696.3127440326,-2872696.3127428293,-2872696.3127434035,-928460.8700451783,-928460.8700511649,-928460.8700570893,-287507.44050545455,-287507.44062773575,-287507.4406325764,-430.11687291206727,-430.11677551332605,-430.11677042394876,-36340.43987624021,-36340.43984414783,-36340.439842007225
-80,-1.4446348576226642,-1.4446348576486994,-1.4446348576323498,-3138949.4803750496,-3138949.480381727,-3138949.4803866413,-1133885.1707296777,-1133885.1707470515,-1133885.1706980076,-218391.2168113375,-218391.21696519817,-218391.21695755312,-123.72768636965156,-123.72760952514068,-123.72760599851608,-34996.54926120071,-34996.54922158227,-34996.54923012784
-70,-1.6061584023376194,-1.6061584022922948,-1.606158402344863,-3421041.6380156726,-3421041.6380283833,-3421041.638041124,-1409885.0450702521,-1409885.0450861542,-1409885.0451619655,-165184.39606273198,-165184.39587202706,-165184.3958714061,334.5052844492584,334.50524243498865,334.5051661506295,-34404.41992214462,-34404.41987937456,-34404.419879082474
-60,-1.7739612349036897,-1.7739612348889802,-1.7739612348954525,-3642744.9885635264,-3642744.988579631,-3642744.988583084,-1753657.6452977725,-1753657.6453588363,-1753657.6453426913,-124338.59153752774,-124338.59143160442,-124338.59146908305,1067.4497984592927,1067.4498580614725,1067.4498643130064,-34068.39701206144,-34068.39709695685,-34068.39710028671
-50,-1.9162580342114297,-1.9162580341970346,-1.9162580342154252,-3718704.1106338724,-3718704.110645056,-3718704.110652234,-2154525.165935717,-2154525.1660742546,-2154525.166023408,-93032.7281931187,-93032.72820188206,-93032.72826198905,2278.9425917396075,2278.9427854056516,2278.9427466988564,-33694.51368197054,-33694.51366247641,-33694.513666982646
-40,-2.00057616273539,-2.0005761627851566,-2.0005761627514733,-3575057.20117449,-3575057.2011733055,-3575057.201155138,-2587627.832865946,-2587627.8327304153,-2587627.8326640334,-69058.29690279998,-69058.29689050523,-69058.29688734387,4300.0643048427955,4300.064127212308,4300.064152911305,-33104.495034014806,-33104.495287425365,-33104.49530398662
-30,-2.003228290881569,-2.003228290938107,-2.003228290780072,-3187820.492842734,-3187820.492824793,-3187820.492817044,-3005300.464820591,-3005300.4650012497,-3005300.4646966257,-50706.092372069135,-50706.09266502343,-50706.0925520542,7644.30974637709,7644.310082429882,7644.310152634978,-32180.654762599617,-32180.65487628072,-32180.654880890634
-20,-1.9154010066804628,-1.9154010067214426,-1.9154010068075475,-2611889.2853594124,-2611889.2852852345,-2611889.285289323,-3327246.8023395482,-3327246.8018773943,-3327246.8018930675,-36667.96871797275,-36667.96946143108,-36667.969572574875,13060.745614953761,13060.745759376845,13060.745645776391,-30824.281520027667,-30824.281650427147,-30824.281698897692
-10,-1.737060920744282,-1.7370609206851304,-1.737060920673782,-1963111.0292936414,-1963111.02923882,-1963111.0292397924,-3439551.651131438,-3439551.6514797397,-3439551.6516360706,-25958.006972761825,-25958.006016986797,-25958.005826895016,21549.057494386725,21549.057407511154,21549.057412087917,-28933.648709207773,-28933.649490810192,-28933.649494702157
0,-1.469387687340405,-1.4693876874419485,-1.4693876874086367,-1359667.6383163333,-1359667.6381965876,-1359667.6380846873,-3229626.913812725,-3229626.914686002,-3229626.9146084255,-17848.39911279455,-17848.398896553626,-17848.399086142887,34251.964704247905,34251.96495830904,34251.96497237682,-26425.81306964159,-26425.813137037352,-26425.81295700783
