"{'distance': [0.1, 0.2, 0.3, 0.4, 0.5, 0.6, 0.7, 0.8, 0.9], 'solute_3': [8.0, -10.0, 8.0, -10.0, 8.0, -10.0, 8.0, -10.0, 8.0], 'solute_2': [8.0, -10.0, 8.0, -10.0, 8.0, -10.0, 8.0, -10.0, 8.0], 'solute_1': [8.0, -10.0, 8.0, -10.0, 8.0, -10.0, 8.0, -10.0, 8.0]}","{'solute_3i': '1.0 mM', 'solute_1e': '1.0 mM', 'solute_2i': '1.0 mM', 'solute_3e': '1.0 mM', 'solute_1i': '1.0 mM', 'solute_2e': '1.0 mM'}"
voltage,current,solute_3,solute_2,solute_1
-150,-0.059711974295492215,-82591.62760448529,-42367.411526478885,-82591.6276044732
-140,-0.05421646843653577,-74831.38572048358,-39104.347483452984,-74831.38572048587
-130,-0.049021114938020874,-67520.8001651888,-35916.26836559257,-67520.80016518867
-120,-0.04407710558165498,-60574.62872836253,-32839.472487650346,-60574.628728358424
-110,-0.039339739392482184,-53913.691706872945,-29911.646359036677,-53913.69170687396
-100,-0.03477179174062231,-47472.379981398495,-27162.862974651205,-47472.379981407976
-90,-0.030348040381850273,-41208.87616999421,-24602.949638691236,-41208.876169993106
-80,-0.026060049514042435,-35115.78089439239,-22208.84592329973,-35115.780894402305
-70,-0.021919564795172708,-29227.00607901,-19918.22284482836,-29227.006079014987
-60,-0.01795860419892276,-23616.466241981198,-17635.284838076386,-23616.46624198548
-50,-0.014224785859264427,-18385.96193522522,-15250.071480471193,-18385.96193522716
-40,-0.0107712396898827,-13642.560912670695,-12665.959157575275,-13642.560912669946
-30,-0.007640845639095367,-9467.49901816061,-9825.669589608784,-9467.499018169105
-20,-0.004844594883253232,-5878.601748572984,-6726.509879965128,-5878.601748564402
-10,-0.0023367489228363716,-2791.5373207560733,-3420.2984250877307,-2791.5373207461653
0,5.731879355153066e-16,-9.487848728895187e-09,-1.4968463801778853e-08,1.8761056708171964e-08
10,0.002336748922833364,2791.537320758118,3420.2984250812933,2791.5373207379525
20,0.00484459488325946,5878.601748580744,6726.509879946596,5878.601748585346
30,0.007640845639094403,9467.499018182167,9825.669589616613,9467.499018140623
40,0.010771239689882105,13642.560912664892,12665.959157557541,13642.560912682762
50,0.014224785859256461,18385.9619352178,15250.071480471088,18385.96193520977
60,0.01795860419892899,23616.46624200974,17635.284838044987,23616.46624199208
70,0.021919564795177152,29227.006079008097,19918.222844835687,29227.006079027098
80,0.026060049514038085,35115.780894401876,22208.84592330052,35115.78089437884
90,0.03034804038184482,41208.87617000975,24602.949638696293,41208.87616995802
100,0.03477179174063256,47472.37998142924,27162.862974644428,47472.37998141259
"{'distance': [0.1, 0.2, 0.3, 0.4, 0.5, 0.6, 0.7, 0.8, 0.9], 'solute_3': [8.0, -10.0, 8.0, -10.0, 8.0, -10.0, 8.0, -10.0, 8.0], 'solute_2': [8.0, -10.0, 8.0, -10.0, 8.0, -10.0, 8.0, -10.0, 8.0], 'solute_1': [8.0, -10.0, 8.0, -10.0, 8.0, -10.0, 8.0, -10.0, 8.0]}","{'solute_3i': '1.0 mM', 'solute_1e': '1.0 mM', 'solute_2i': '1.0 mM', 'solute_3e': '1.0 mM', 'solute_1i': '1.0 mM', 'solute_2e': '1.0 mM'}"
voltage,largest element,smallest element,element difference,element ratio difference,condition number,transport error solute_3,transport error solute_2,transport error solute_1,current errors,smallest eigenvalue,second smallest eigenvalue,sum absolute errors,sum squared errors
-150,229941312.75476724,27981.808654549848,229913330.94611269,8217.5285948636756,54860833308108104.0,3.608874976634979e-08,4.1807652451097965e-08,4.4994521886110306e-08,1.6202317265623378e-14,0.0,-136528.18845359242,4.1538209359768213e-08,4.286260468222558e-07
-140,215533836.06661052,30312.331445629086,215503523.73516488,7110.4341298593718,1.575769061843344e+17,1.469743438065052e-08,3.766035661101341e-08,3.93774826079607e-08,1.1469991623158649e-14,1.8478099673924086e-08,-127406.82381706988,5.2257484070266695e-08,3.2160990770524478e-07
-130,202483690.24394822,32836.956646126979,202450853.28730211,6166.335462389161,10248528435428116.0,1.765147317200899e-08,2.149317879229784e-08,2.2992026060819626e-08,8.756884106730922e-15,3.8988943641080517e-08,-118582.09003960901,2.8978850805869779e-08,3.037904486857812e-07
-120,190707755.37643307,35571.85047655263,190672183.52595651,5361.1986113047187,44154030064488272.0,1.9193976186215878e-08,3.015156835317612e-08,1.4872057363390923e-08,1.0220990720455347e-14,1.5209565413320605e-08,-109890.21753677227,2.8118000832980645e-08,2.7365156118897005e-07
-110,180131035.04776445,38534.525594516781,180092500.52216995,4674.5362053554372,17318388329380218.0,2.5320332497358322e-08,1.4362740330398083e-08,8.41100700199604e-09,1.0005885009434223e-14,4.2957434199990568e-09,-101184.7498249427,2.7250397094006711e-08,2.8030326482131329e-07
-100,170686176.75830278,41743.953235529727,170644432.80506724,4088.8838628974377,1.8499175493794218e+19,8.294591680169106e-09,3.1126546673476696e-08,3.695458872243762e-08,8.958112029944232e-15,7.4505805988350868e-09,-92384.004943685431,3.1361736604383374e-08,2.5007367043805573e-07
-90,162313041.2385979,45220.684693677606,162267820.55390424,3589.3539060298926,19703965727503976.0,3.361492417752743e-08,2.556771505624056e-08,5.2343239076435566e-08,2.3120394487818885e-14,2.9802322387695313e-08,-83516.755791221178,5.046005736342364e-08,4.6626126604110141e-07
-80,154958317.89692849,48986.982920067887,154909330.91400841,3163.2549844879027,3.7113951192322637e+17,2.8667272999882698e-08,4.313187673687935e-08,1.9543222151696682e-08,6.8660355179162025e-15,2.9802322387695313e-08,-74734.878744385845,4.7537280943426508e-08,4.3784980063854562e-07
-70,148575183.93927363,53066.965081723632,148522116.9741919,2799.7678727333741,72300820744074352.0,2.112938091158867e-08,5.4104020819067955e-08,3.0573573894798756e-08,1.42559575255774e-14,-1.5534532120314274e-07,-66277.333101309516,3.6584607411531623e-08,3.820601015558367e-07
-60,143123004.97970539,57486.756993789815,143065518.22271159,2489.6691423237999,12560876755017078.0,1.6039848560467362e-08,2.3537722881883383e-08,1.949956640601158e-08,6.879913305724017e-15,1.0591433072439041e-07,-58405.922506104747,2.4951081734739949e-08,2.628992175068845e-07
-50,138567075.22478348,62274.660413945494,138504800.56436953,2225.0956376753429,51193821591349296.0,3.056629793718457e-08,7.144990377128124e-08,1.8146238289773464e-08,8.392592176775793e-15,3.742649504636425e-08,-51352.092709694363,2.6821062277977647e-08,2.5844000672847756e-07
-40,134878395.56885934,67461.334270276828,134810934.23458907,1999.3437281937393,3.5737281799841728e+17,7.112248567864299e-09,4.743924364447594e-08,3.1737727113068104e-08,9.285974766903848e-15,-4.7308188620335388e-08,-45298.556138478511,3.5682875627931357e-08,3.9267391360731096e-07
-30,132033488.17987081,73079.990983088384,131960408.18888773,1806.6982002012699,29480317127843536.0,1.579064701218158e-08,1.877197064459324e-08,1.4784745872020721e-08,4.4565046097844174e-15,-8.9890212297519563e-08,-40391.137722262989,4.1313250250142608e-08,4.2917892617566622e-07
-20,130014246.38879053,79166.60913778223,129935079.77965274,1642.2864109603665,3.7049497345791181e+17,3.745844878721982e-08,3.583045327104628e-08,1.5477780834771693e-08,3.472916398905568e-15,-3.9704048277730011e-08,-36758.733313510435,3.6060904694488173e-08,3.6651669099718731e-07
-10,128807818.9218716,85760.163870637698,128722058.75800097,1501.9539738306451,41490395627808616.0,3.346940502524376e-08,9.089126251637936e-08,4.36575646745041e-08,1.1839921404410703e-14,1.2579109352099547e-07,-34518.913585826587,2.7124216589453515e-08,2.8100010540654807e-07
0,128406527.73466575,92902.876442747045,128313624.85822301,1382.1587947688404,6.2506117765346496e+17,2.5902409106492996e-08,7.060589268803596e-08,4.157845978625119e-08,6.858439883217214e-15,4.1235787890965808e-09,-33760.94442533837,3.3642767313791747e-08,3.4662634673665593e-07
10,128807818.92187163,85760.163870637698,128722058.758001,1501.9539738306453,1.4978674121702976e+17,7.643393473699689e-09,3.277091309428215e-08,3.3440301194787025e-08,5.954004650421396e-15,-3.084289993446398e-09,-34518.913585801638,2.7827575834914476e-08,2.3419335937191477e-07
20,130014246.38879055,79166.609137782245,129935079.77965276,1642.2864109603663,43696491080527616.0,1.3737007975578308e-08,6.516347639262676e-08,2.2786480258218944e-08,8.592952738251114e-15,8.3229122302192745e-08,-36758.733313681405,2.6119477986628659e-08,2.7450238659909587e-07
30,132033488.17987081,73079.990983088399,131960408.18888773,1806.6982002012694,58371419770733744.0,2.183151082135737e-08,1.5388650353997946e-08,3.170316631440073e-08,6.357761539454998e-15,-1.2710423891580079e-07,-40391.137722318417,3.5212630767848787e-08,3.5864275993446881e-07
40,134878395.56885934,67461.334270276857,134810934.23458907,1999.3437281937383,17052086343571814.0,1.6123522073030472e-08,3.486638888716698e-08,2.8026988729834557e-08,6.923281392623437e-15,-5.9604644775390625e-08,-45298.55613853554,3.4771266870052642e-08,3.8718359562928129e-07
50,138567075.22478351,62274.660413945508,138504800.56436956,2225.0956376753429,59681997149726584.0,2.35741026699543e-08,1.5512341633439064e-08,1.7822458175942302e-08,1.1508155539630138e-14,-5.9604644775390625e-08,-51352.092709568111,3.4955398887347201e-08,3.638146075513049e-07
60,143123004.97970542,57486.756993789844,143065518.22271162,2489.669142323799,8733144958399895.0,3.401873982511461e-08,3.351306077092886e-08,1.7083948478102684e-08,9.988537774674455e-15,9.4074465807160584e-08,-58405.922506074494,2.5300882490747075e-08,2.3665457993260475e-07
70,148575183.93927363,53066.965081723654,148522116.9741919,2799.7678727333732,1.765547473949192e+17,2.0525476429611444e-08,1.05355866253376e-08,2.3632310330867767e-08,6.949302244763089e-15,-3.9636768111942397e-08,-66277.333101382377,3.36921223997501e-08,3.0175402687682151e-07
80,154958317.89692849,48986.982920067931,154909330.91400841,3163.2549844878995,26934617534298312.0,8.716597221791744e-09,1.696753315627575e-08,3.9261067286133766e-08,1.2087553180606392e-14,2.1038601380824656e-08,-74734.878744381393,3.907641195812523e-08,4.34967142748377e-07
90,162313041.23859793,45220.684693677635,162267820.55390427,3589.3539060298913,75157342766235312.0,2.971501089632511e-08,5.1877577789127827e-08,4.8006768338382244e-08,1.4349632593280148e-14,6.9397173879662709e-08,-83516.755791203032,4.0284163304219461e-08,4.0258814659743791e-07
100,170686176.75830284,41743.953235529763,170644432.8050673,4088.8838628974354,35702673426283200.0,4.160392563790083e-08,2.8492650017142296e-08,2.8085196390748024e-08,2.5125734826048074e-14,0.0,-92384.004943594293,5.4456770825090349e-08,4.5450155239379342e-07
"{'distance': [0.1, 0.2, 0.3, 0.4, 0.5, 0.6, 0.7, 0.8, 0.9], 'solute_3': [8.0, -10.0, 8.0, -10.0, 8.0, -10.0, 8.0, -10.0, 8.0], 'solute_2': [8.0, -10.0, 8.0, -10.0, 8.0, -10.0, 8.0, -10.0, 8.0], 'solute_1': [8.0, -10.0, 8.0, -10.0, 8.0, -10.0, 8.0, -10.0, 8.0]}","{'solute_3i': '1.0 mM', 'solute_1e': '1.0 mM', 'solute_2i': '1.0 mM', 'solute_3e': '1.0 mM', 'solute_1i': '1.0 mM', 'solute_2e': '1.0 mM'}"
voltage,"current, barrier 0","current, barrier 1","current, barrier 2","current, barrier 3","current, barrier 4",solute_3 transport over barrier 0,solute_3 transport over barrier 1,solute_3 transport over barrier 2,solute_3 transport over barrier 3,solute_3 transport over barrier 4,solute_2 transport over barrier 0,solute_2 transport over barrier 1,solute_2 transport over barrier 2,solute_2 transport over barrier 3,solute_2 transport over barrier 4,solute_1 transport over barrier 0,solute_1 transport over barrier 1,solute_1 transport over barrier 2,solute_1 transport over barrier 3,solute_1 transport over barrier 4
-150,-0.05971197429550253,-0.059711974295492215,-0.05971197429548996,-0.05971197429548633,-0.059711974295491854,-82591.62760449901,-82591.62760448529,-82591.62760448095,-82591.62760446292,-82591.6276044932,-42367.41152646105,-42367.411526478885,-42367.41152648488,-42367.41152650286,-42367.411526496,-82591.6276045006,-82591.6276044732,-82591.6276044675,-82591.62760446523,-82591.6276044556
-140,-0.054216468436541584,-0.05421646843653577,-0.05421646843653495,-0.054216468436545866,-0.054216468436534396,-74831.38572049126,-74831.38572048358,-74831.3857204786,-74831.38572048667,-74831.38572047657,-39104.3474834619,-39104.347483452984,-39104.347483444566,-39104.34748343105,-39104.34748342424,-74831.38572049186,-74831.38572048587,-74831.38572049249,-74831.38572052524,-74831.38572050293
-130,-0.04902111493802584,-0.049021114938020874,-0.04902111493802655,-0.04902111493801779,-0.04902111493801905,-67520.80016519877,-67520.8001651888,-67520.80016519899,-67520.80016518591,-67520.80016518134,-35916.26836558416,-35916.26836559257,-35916.26836559804,-35916.268365605654,-35916.2683656037,-67520.80016519842,-67520.80016518867,-67520.80016519346,-67520.80016517543,-67520.80016518489
-120,-0.0440771055816652,-0.04407710558165498,-0.04407710558166297,-0.04407710558166114,-0.04407710558165945,-60574.628728371914,-60574.62872836253,-60574.62872838172,-60574.62872837975,-60574.6287283813,-32839.472487665655,-32839.472487650346,-32839.472487649735,-32839.47248764102,-32839.4724876355,-60574.628728373296,-60574.628728358424,-60574.62872836449,-60574.6287283651,-60574.62872836104
-110,-0.03933973939248607,-0.039339739392482184,-0.03933973939248152,-0.039339739392476064,-0.03933973939247846,-53913.69170687927,-53913.691706872945,-53913.691706865924,-53913.69170685395,-53913.69170687004,-29911.64635903806,-29911.646359036677,-29911.64635903418,-29911.64635903401,-29911.646359023696,-53913.69170687909,-53913.69170687396,-53913.69170688014,-53913.6917068752,-53913.69170687173
-100,-0.034771791740614746,-0.03477179174062231,-0.03477179174062244,-0.034771791740613484,-0.034771791740617994,-47472.37998140197,-47472.379981398495,-47472.37998139867,-47472.3799814051,-47472.37998140679,-27162.862974639298,-27162.862974651205,-27162.8629746519,-27162.862974656753,-27162.862974670425,-47472.379981386825,-47472.379981407976,-47472.37998140785,-47472.37998137102,-47472.37998137658
-90,-0.030348040381854742,-0.030348040381850273,-0.030348040381841954,-0.03034804038185865,-0.030348040381865074,-41208.87617000153,-41208.87616999421,-41208.87617000504,-41208.87617001516,-41208.87617002783,-24602.949638682636,-24602.949638691236,-24602.94963870049,-24602.949638703576,-24602.949638708204,-41208.876170004034,-41208.876169993106,-41208.87616995169,-41208.87616999214,-41208.87616999721
-80,-0.02606004951404023,-0.026060049514042435,-0.026060049514047095,-0.026060049514044552,-0.026060049514041363,-35115.7808944057,-35115.78089439239,-35115.780894395546,-35115.780894383046,-35115.780894377036,-22208.84592327726,-22208.84592329973,-22208.845923301327,-22208.845923310873,-22208.84592332039,-35115.78089439335,-35115.780894402305,-35115.78089441289,-35115.78089441269,-35115.780894403986
-70,-0.02191956479516029,-0.021919564795172708,-0.021919564795174547,-0.02191956479516939,-0.021919564795166376,-29227.006078995037,-29227.00607901,-29227.006079016166,-29227.006079008,-29227.006079003273,-19918.222844809323,-19918.22284482836,-19918.22284483943,-19918.22284485405,-19918.222844863427,-29227.006079000712,-29227.006079014987,-29227.006079009036,-29227.006078993792,-29227.006078984414
-60,-0.017958604198923988,-0.01795860419892276,-0.017958604198919186,-0.017958604198926066,-0.01795860419892384,-23616.466241986986,-23616.466241981198,-23616.466241975955,-23616.466241991937,-23616.466241975897,-17635.284838071268,-17635.284838076386,-17635.284838071617,-17635.28483805285,-17635.28483806178,-23616.466241986083,-23616.46624198548,-23616.46624198195,-23616.466241996826,-23616.46624200145
-50,-0.014224785859267461,-0.014224785859264427,-0.014224785859263834,-0.014224785859272226,-0.014224785859265275,-18385.961935224128,-18385.96193522522,-18385.96193523705,-18385.961935254694,-18385.96193525201,-15250.071480479703,-15250.071480471193,-15250.07148046195,-15250.071480442763,-15250.071480408253,-18385.96193523347,-18385.96193522716,-18385.961935218103,-18385.96193523625,-18385.96193523449
-40,-0.010771239689884266,-0.0107712396898827,-0.01077123968988579,-0.010771239689890102,-0.010771239689880816,-13642.560912672809,-13642.560912670695,-13642.560912673885,-13642.560912677807,-13642.560912671906,-12665.959157589357,-12665.959157575275,-12665.95915756395,-12665.959157552319,-12665.959157541918,-13642.560912665678,-13642.560912669946,-13642.560912682064,-13642.560912697416,-13642.560912679532
-30,-0.007640845639099824,-0.007640845639095367,-0.007640845639096909,-0.007640845639096941,-0.0076408456390997075,-9467.499018175178,-9467.49901816061,-9467.499018172297,-9467.499018159388,-9467.499018170522,-9825.669589617086,-9825.669589608784,-9825.66958960687,-9825.669589609894,-9825.669589598314,-9467.499018164293,-9467.499018169105,-9467.499018163187,-9467.499018174682,-9467.499018177972
-20,-0.004844594883255403,-0.004844594883253232,-0.004844594883252513,-0.004844594883252607,-0.00484459488325193,-5878.601748571964,-5878.601748572984,-5878.60174856169,-5878.601748556088,-5878.601748535526,-6726.509879972815,-6726.509879965128,-6726.509879975842,-6726.509879982825,-6726.509880000958,-5878.601748568355,-5878.601748564402,-5878.601748568093,-5878.6017485705015,-5878.60174857988
-10,-0.0023367489228353247,-0.0023367489228363716,-0.00233674892284506,-0.0023367489228471646,-0.0023367489228453817,-2791.537320743082,-2791.5373207560733,-2791.5373207638913,-2791.5373207706252,-2791.5373207765515,-3420.2984251065936,-3420.2984250877307,-3420.2984250650334,-3420.2984250401205,-3420.2984250157024,-2791.537320746458,-2791.5373207461653,-2791.5373207768134,-2791.5373207891043,-2791.537320789823
0,-1.4826538972556588e-15,5.731879355153066e-16,4.284776514396071e-15,-1.9786202756222382e-16,-2.573663368821143e-15,-3.4924596548080444e-09,-9.487848728895187e-09,1.641456037759781e-08,9.045834303833544e-09,-3.3760443329811096e-09,-3.42843122780323e-08,-1.4968463801778853e-08,-1.8917489796876907e-09,1.5255864127539098e-08,3.632158041000366e-08,1.6007106751203537e-08,1.8761056708171964e-08,-2.0954757928848267e-09,-1.7291313270106912e-08,-2.2817403078079224e-08
10,0.0023367489228306297,0.002336748922833364,0.0023367489228365837,0.0023367489228359735,0.0023367489228327838,2791.5373207569355,2791.537320758118,2791.5373207504745,2791.5373207558496,2791.5373207507364,3420.298425083689,3420.2984250812933,3420.298425066896,3420.2984250542813,3420.298425050918,2791.5373207294033,2791.5373207379525,2791.5373207628436,2791.5373207618704,2791.537320758711
20,0.004844594883255314,0.00484459488325946,0.004844594883255846,0.004844594883260519,0.004844594883263907,5878.6017485670745,5878.601748580744,5878.60174856722,5878.601748575647,5878.601748580812,6726.509879929537,6726.509879946596,6726.509879974299,6726.50987999045,6726.509879994701,5878.601748594607,5878.601748585346,5878.601748573739,5878.60174857182,5878.601748575107
30,0.007640845639098736,0.007640845639094403,0.007640845639096472,0.0076408456390933965,0.007640845639092378,9467.499018175877,9467.499018182167,9467.49901816118,9467.499018164328,9467.499018160335,9825.66958961077,9825.669589616613,9825.669589608093,9825.669589608715,9825.669589601224,9467.499018163362,9467.499018140623,9467.499018172326,9467.499018159273,9467.499018163828
40,0.010771239689882792,0.010771239689882105,0.010771239689875868,0.010771239689880122,0.010771239689881616,13642.56091266463,13642.560912664892,13642.560912655434,13642.560912665893,13642.560912671557,12665.959157543897,12665.959157557541,12665.959157569188,12665.95915757426,12665.959157578764,13642.560912691988,13642.560912682762,13642.56091266693,13642.56091266721,13642.560912663961
50,0.014224785859261478,0.014224785859256461,0.014224785859261135,0.014224785859257825,0.01422478585924997,18385.96193522471,18385.9619352178,18385.9619352172,18385.961935218726,18385.961935201136,15250.071480455576,15250.071480471088,15250.07148046582,15250.071480463454,15250.071480457642,18385.96193522628,18385.96193520977,18385.96193522759,18385.96193521692,18385.961935212894
