"{'distance': [0.089, 0.199, 0.317, 0.635, 0.687, 0.778, 0.854, 0.884, 0.891], 'solute_3': [14.82, -17.72, 0.72, -2.07, 5.61, -0.5, 11.83, -18.76, 14.22], 'solute_2': [12.04, -17.52, 18.06, -7.2, 4.14, -8.28, 13.55, -17.9, 12.85], 'solute_1': [10.05, -15.64, 15.48, -18.35, 19.56, -15.96, 12.4, -6.32, 8.38]}","{'solute_3i': '209.0 mM', 'solute_1e': '490.0 uM', 'solute_2i': '152.0 nM', 'solute_3e': '378.0 mM', 'solute_1i': '434.0 M', 'solute_2e': '274.0 nM'}"
voltage,current,solute_3,solute_2,solute_1
-150,-3.2880328348820614e-10,-0.0001765313427313231,-1.0151928345077858e-06,-0.0006242926772916849
-140,-2.0315956171115253e-10,-4.9612037400947884e-05,3.251461111902467e-07,-0.00040650848635155785
-130,-1.1639623969191351e-10,-2.494017462595366e-05,8.983116392865123e-08,-0.00023396586886021607
-120,-4.1914509342005785e-11,-1.0925567039521411e-05,1.3622796795640583e-08,-8.358464548151152e-05
-110,2.8712314663897116e-11,-2.2904787329025567e-06,-6.797650477658047e-08,6.0574113327306964e-05
-100,1.1127477104669331e-10,-7.328198989853263e-07,-3.063266777712922e-07,0.00023208362337879244
-90,2.2546471849047983e-10,-1.5040513972053304e-06,-6.522223859222569e-08,0.00046969832154011555
-80,3.979251063572282e-10,2.5715416995808482e-06,1.620438896929746e-07,0.0008269564442021824
-70,6.59204227584318e-10,-1.1964812074438669e-05,1.8700924177793092e-07,0.001375428867742498
-60,1.0587918071917297e-09,-9.891482477542013e-08,1.9378134012996293e-07,0.002202901627204728
-50,1.6296913523218664e-09,-7.078770067892037e-07,-2.47926652909237e-07,0.003391435513457641
-40,2.4269704506277628e-09,4.484718374442309e-07,-1.8622925736152193e-06,0.005051588895651859
-30,3.4643635314862136e-09,1.0652638593455777e-07,2.0546552035015257e-07,0.007208172532730143
-20,4.700183323822599e-09,9.612565918359905e-06,2.3005757576602738e-07,0.009776389565317446
-10,6.058166245258031e-09,-4.8870069804252125e-06,8.859864958592273e-08,0.012606963302674376
0,7.413225199364078e-09,1.0150223715754692e-05,-6.535937407150501e-07,0.01542220817868623
10,8.67632831908637e-09,5.6922845033113845e-06,-1.389403909296258e-07,0.0180513591133184
20,9.749837752838927e-09,4.6014247345738113e-07,-4.962376142958302e-06,0.02029161247604866
30,1.0600465039312013e-08,-9.89570253295824e-07,-2.5884570937615576e-06,0.02205964956501426
40,1.1325701012988844e-08,2.910956936830189e-06,2.4676886557310078e-06,0.02356231524452688
50,1.1754104441123502e-08,8.46972852741601e-06,-1.2110856882587248e-06,0.02445553399582852
60,1.216198719619681e-08,1.4004062904859893e-06,1.754744828819658e-06,0.02530361947720421
70,1.2402394220054029e-08,3.388539880688768e-06,6.410395936720143e-08,0.02580487009488612
80,1.2672044456294166e-08,2.507149474695325e-07,-9.478760526654188e-07,0.026367998004557826
90,1.2851325932500801e-08,-1.5384505786641967e-05,3.5162776738477914e-06,0.02674178237053219
100,1.2980671435808313e-08,4.208739937894279e-06,6.743487875574632e-06,0.02700115746025231
"{'distance': [0.089, 0.199, 0.317, 0.635, 0.687, 0.778, 0.854, 0.884, 0.891], 'solute_3': [14.82, -17.72, 0.72, -2.07, 5.61, -0.5, 11.83, -18.76, 14.22], 'solute_2': [12.04, -17.52, 18.06, -7.2, 4.14, -8.28, 13.55, -17.9, 12.85], 'solute_1': [10.05, -15.64, 15.48, -18.35, 19.56, -15.96, 12.4, -6.32, 8.38]}","{'solute_3i': '209.0 mM', 'solute_1e': '490.0 uM', 'solute_2i': '152.0 nM', 'solute_3e': '378.0 mM', 'solute_1i': '434.0 M', 'solute_2e': '274.0 nM'}"
voltage,largest element,smallest element,element difference,element ratio difference,condition number,transport error solute_3,transport error solute_2,transport error solute_1,current errors,smallest eigenvalue,second smallest eigenvalue,sum absolute errors,sum squared errors
-150,139993421846691.64,4.0480502768481963e-05,139993421846691.64,3.4582925673465262e+18,1.7091034905233536e+18,0.00014695322315128045,0.00010902296152579133,0.00011339169392944257,5.4156294669474845e-11,-0.0001661575311112828,-0.029005682991501077,0.00012393929485071239,0.00028699509562832591
-140,131541897433013.58,5.9288801604259735e-05,131541897433013.58,2.2186634553861965e+18,5.1130998626562406e+18,3.326598458479324e-05,1.091774178544604e-05,3.902075380150631e-05,2.0547875771037038e-11,-2.791776289566561e-05,-0.028283713877502531,2.9180777535263139e-05,7.4285112030308273e-05
-130,123604020058437.34,8.6835927304889293e-05,123604020058437.34,1.4234202811521979e+18,2.1194880658265764e+18,5.090674287028252e-06,6.433953281946263e-06,1.671686332649358e-05,5.690175490411991e-12,-2.4522783956076692e-07,-0.026260684231737937,1.748792437203078e-05,4.0108237162663595e-05
-120,116149051522142.86,0.00012718216706809356,116149051522142.86,9.1324950816380134e+17,2.6077856898590999e+19,8.2790983059855e-05,7.936655120800372e-05,6.550693694974685e-05,3.1245294022382156e-11,8.7035402816591155e-05,-0.025168506828816911,9.601379702532469e-05,0.00017157446449901181
-110,109148159720472.2,0.00018627432356820966,109148159720472.2,5.8595386433119693e+17,3.0249162062487665e+18,2.409051761009806e-05,3.080498655735273e-05,2.6573735574023788e-05,9.190809620962047e-12,-2.2906707808071988e-05,-0.024604659278589829,3.2066394027858235e-05,7.2072127810992635e-05
-100,102574309860478.66,0.00027282223931769146,102574309860478.66,3.7597488429465843e+17,4.3670284645999831e+18,1.4670823995199811e-05,3.4066678486141656e-06,1.659987132229812e-05,7.261488751484826e-12,1.0133101883814571e-05,-0.0091374495355032517,1.9667415246140922e-05,5.4252574854493321e-05
-90,96402163165267.484,0.00036738871081318415,96402163165267.484,2.6239827280454365e+17,1.5890871939233612e+19,0.00010352486723474996,0.00010250395846949185,8.316266583299466e-05,3.936730402833451e-11,-0.00010063100735255066,-0.020652474825211525,0.00012771704051630161,0.00022444619520258885
-80,90607982745226.812,0.00034516426876922076,90607982745226.812,2.6250684367856147e+17,7.3677524816026255e+18,7.722627966000317e-06,7.736273944800003e-06,9.127104872646207e-06,4.082153956006958e-12,2.5420999766376402e-06,-0.025371688586159437,7.0065081921574522e-06,2.4302708906675724e-05
-70,85169546346750.562,0.00032428424970187039,85169546346750.562,2.6263855375353843e+17,4.8952282590335558e+19,2.875932853196872e-05,2.2576655576626038e-05,3.276781974109462e-05,1.5780300074113743e-11,-7.3726859832810026e-06,-0.026469619471852165,2.8418763647271342e-05,7.1111320076154373e-05
-60,80066065727776.203,0.00030466732544386251,80066065727776.203,2.6279833458061142e+17,6.6461684052773775e+18,5.827937148428219e-06,1.8025402053454037e-06,7.396280401734436e-05,3.5431948047780706e-11,-8.9586513364614442e-05,-0.028048722567916403,9.9237203908276073e-05,0.00015721690892127465
-50,75278112447732.328,0.00028623708761203238,75278112447732.328,2.6299216874986086e+17,8.3868349346033943e+19,7.650435622785778e-06,3.993323510017324e-06,8.544122520159902e-06,4.087776653935483e-12,-3.4283069610395806e-06,-0.030391204541166374,7.7834642159585622e-06,2.6399455208415357e-05
-40,70787549898675.812,0.0002689217499948641,70787549898675.812,2.6322731389345683e+17,1.3334155276081689e+19,3.4552358121525684e-05,4.201430445698655e-05,8.050400580283945e-05,3.42417876601757e-11,-8.7878095553086129e-05,-0.033862485347470009,8.1078500323674782e-05,0.00018059453839978229
-30,66577471444896.133,0.00025265386894350215,66577471444896.133,2.6351257442958067e+17,7.1225245520407442e+20,0.00015507527068603366,0.00015913148631892216,8.200386055258035e-05,4.9683322180501946e-11,0.0001052864984522825,-0.039046531186878931,0.00018781422918662008,0.00032781704727936179
-20,62632144580502.352,0.00023737008067714675,62632144580502.352,2.6385863122189341e+17,1.7618458956833751e+18,7.081710978806832e-05,6.703674866853556e-05,3.708767814070146e-05,1.9067077776182244e-11,3.6998036101957694e-05,-0.047014942622138546,7.2410322719006296e-05,0.00015339046234398479
-10,58936961058976.992,0.00022301085447963112,58936961058976.992,2.6427844149783325e+17,6.8349610155605325e+17,7.178615185932102e-05,6.98135534849947e-05,8.238255829649127e-05,3.934284666945701e-11,-0.00014358055525824325,-0.059622846616501288,9.6264535309167814e-05,0.00017169986162423286
0,55478392995904.016,0.00020952026082587681,55478392995904.016,2.6478772399968374e+17,1.1593157881400778e+18,6.29117408967872e-05,6.453415470364291e-05,6.242223550395262e-06,2.041561461754914e-11,-4.0207802816911836e-05,-0.079232781767676577,8.2249266172296556e-05,0.00018208980835140461
10,52243954996657.891,0.00019684575353507279,52243954996657.891,2.6540554753369053e+17,3.3302936958823055e+18,7.658943319777123e-06,4.402894179230605e-06,1.8853922963635306e-05,8.546429988390474e-12,2.6209437109570022e-05,-0.11017615898961364,1.7781611690094415e-05,5.0606523304078499e-05
20,49222172415436.789,0.00018493796510206051,49222172415436.789,2.6615504495398157e+17,9.0113056531999846e+17,2.746592926383684e-05,2.1450516599430212e-05,1.4660443109135862e-05,8.887272677768513e-12,5.422678136449793e-05,-0.12961798405905153,3.8899648204183005e-05,9.1251048425093441e-05
30,51863427947713.781,0.0001737505144097357,51863427947713.781,2.9849366560958931e+17,8.7594009001637978e+17,1.794125000753599e-05,6.9090654949319065e-06,3.702535713392269e-05,1.2951521690696571e-11,9.9088360075649036e-05,-0.12939989389948153,4.1410982058298762e-05,9.7969497287616694e-05
40,58630752238963.852,0.00016323982607350216,58630752238963.852,3.5916941134551392e+17,9.2162345895566093e+17,0.00018213056797555804,0.0001848637777926504,2.371207967279479e-05,5.754872102170305e-11,0.00017755731623286277,-0.12908865272724998,0.0002448324987518417,0.00038538907946549157
50,66318263111812.641,0.00015336496071411993,66318263111812.641,4.3242121800841619e+17,1.2917484308188175e+18,4.9230703337621584e-05,5.802249892935807e-05,2.0150664510949767e-05,2.009916394831209e-11,-3.9553301508756369e-05,-0.12877218090133449,6.2388579820907839e-05,0.00011871559806630189
60,75050759741397.109,0.0001440874554978563,75050759741397.109,5.2086949194903155e+17,1.4948274493951541e+19,3.1354859939214386e-05,3.651211553271106e-05,1.0266024388600609e-05,1.3736115439653277e-11,-5.5242662779326427e-05,-0.12846285642647259,4.9606948666279517e-05,0.00010480660590115234
70,84969969734306.312,0.00013537117432284055,84969969734306.312,6.2768141119663552e+17,1.277504366073794e+18,0.00010172357350402006,0.00010153128670158226,8.178124004498688e-06,3.2526633662989195e-11,-0.00012515637658658165,-0.1281725446682826,0.00013156555342662635,0.00021965115660181034
80,96236845369521.797,0.00012718216706809375,96236845369521.797,7.5668505725331981e+17,1.1314036584022377e+18,5.094490733215107e-05,4.743387901867521e-05,9.216350709453924e-06,1.6305803104289543e-11,3.057106612424348e-05,-0.12791173402690229,5.7647178179258029e-05,0.00010789251603337314
90,109237976923471.73,0.00011948853735700604,109237976923471.73,9.142130227696416e+17,3.4507632826152847e+18,6.158538989539664e-05,6.760760000748295e-05,2.707475238953802e-05,2.872896600848289e-11,1.2971448937914286e-05,-0.12770053276742757,7.3748853266629213e-05,0.00014701690461158549
100,124063538886345.64,0.00011226031832019659,124063538886345.64,1.1051415205547796e+18,3.6283099595937864e+18,2.745933473899398e-05,2.765122338275024e-05,3.3069552469199015e-05,1.610802877440368e-11,5.8658074534904053e-05,-0.12756666765477662,4.1636714420072667e-05,0.00010249238107230513
"{'distance': [0.089, 0.199, 0.317, 0.635, 0.687, 0.778, 0.854, 0.884, 0.891], 'solute_3': [14.82, -17.72, 0.72, -2.07, 5.61, -0.5, 11.83, -18.76, 14.22], 'solute_2': [12.04, -17.52, 18.06, -7.2, 4.14, -8.28, 13.55, -17.9, 12.85], 'solute_1': [10.05, -15.64, 15.48, -18.35, 19.56, -15.96, 12.4, -6.32, 8.38]}","{'solute_3i': '209.0 mM', 'solute_1e': '490.0 uM', 'solute_2i': '152.0 nM', 'solute_3e': '378.0 mM', 'solute_1i': '434.0 M', 'solute_2e': '274.0 nM'}"
voltage,"current, barrier 0","current, barrier 1","current, barrier 2","current, barrier 3","current, barrier 4",solute_3 transport over barrier 0,solute_3 transport over barrier 1,solute_3 transport over barrier 2,solute_3 transport over barrier 3,solute_3 transport over barrier 4,solute_2 transport over barrier 0,solute_2 transport over barrier 1,solute_2 transport over barrier 2,solute_2 transport over barrier 3,solute_2 transport over barrier 4,solute_1 transport over barrier 0,solute_1 transport over barrier 1,solute_1 transport over barrier 2,solute_1 transport over barrier 3,solute_1 transport over barrier 4
-150,-3.277032718824953e-10,-3.2880328348820614e-10,-3.068485341608014e-10,-3.6100482883027625e-10,-3.2477526741508945e-10,-0.00016098526523689038,-0.0001765313427313231,-0.00019443035125732422,-0.00019450634390612287,-0.00030793848838817084,1.8467671139325116e-05,-1.0151928345077858e-06,-1.8256314433529042e-06,-1.0933645782824986e-06,0.00010719733008243843,-0.0006466687372890245,-0.0006242926772916849,-0.0005718339438570592,-0.0006852256377865018,-0.0006803215947002172
-140,-2.141711033732103e-10,-2.0315956171115253e-10,-2.115635065317507e-10,-2.2221167612927273e-10,-2.2370743748218957e-10,-1.825729568349921e-05,-4.9612037400947884e-05,-5.152309313416481e-05,-5.152328026829245e-05,-4.6816067645893966e-05,-9.416275172183148e-06,3.251461111902467e-07,1.5014666132628918e-06,3.406287708496841e-07,-4.669016141980273e-06,-0.00043013071734698816,-0.00040650848635155785,-0.00042453414870160557,-0.00044552924015306417,-0.00044520094525069
-130,-1.1751627177830078e-10,-1.1639623969191351e-10,-1.1224888580418932e-10,-1.1182609628788879e-10,-1.1285581202281719e-10,-1.9867592265132572e-05,-2.494017462595366e-05,-2.4937093257904053e-05,-2.4958266552160824e-05,-2.162481331335897e-05,2.49609363244444e-06,8.983116392865123e-08,4.086850822204724e-07,7.932856340382845e-08,-3.937859649501823e-06,-0.00024039347918680676,-0.00023396586886021607,-0.00022565621621886862,-0.0002244400900828225,-0.00022367661586031318
-120,-4.232004659355687e-11,-4.1914509342005785e-11,-4.965262521397401e-11,-1.8407331191591856e-11,-4.404638410184493e-11,-1.0261887005036385e-05,-1.0925567039521411e-05,-8.583883754909039e-06,-8.62224755814045e-06,7.186541602033358e-05,-3.8329940114717795e-07,1.3622796795640583e-08,4.894371841146494e-07,8.384345187235003e-09,-7.887711402388907e-05,-8.425276446766272e-05,-8.358464548151152e-05,-0.00010094196951128398,-3.543503256153713e-05,-3.672676393762231e-05
-110,2.8655049279629914e-11,2.8712314663897116e-11,3.265973819618877e-11,2.3468928575226722e-11,3.0467241895198934e-11,-1.452177476934935e-06,-2.2904787329025567e-06,-2.9069778975099325e-06,-2.8345435389362517e-06,-2.5542695087032996e-05,-9.294930678761579e-07,-6.797650477658047e-08,3.1851698167884024e-07,-5.1886131421891935e-08,2.9875493489476572e-05,6.103704219695416e-05,6.0574113327306964e-05,6.860665167285687e-05,4.9829294475500774e-05,4.2032916098833084e-05
-100,1.0955500235021659e-10,1.1127477104669331e-10,1.0935509628620108e-10,1.1421392250511938e-10,1.166165850376859e-10,5.5390683884049e-06,-7.328198989853263e-07,-1.059146597981453e-06,-1.001333393937931e-06,-9.131755606794911e-06,-8.018450536492435e-08,-3.063266777712922e-07,-5.031849923398113e-07,-2.899112461889852e-07,2.9034828562743543e-06,0.0002261884732993602,0.00023208362337879244,0.00022839492775388309,0.00023827230016593148,0.00024278834462165833
-90,2.243342947662508e-10,2.2546471849047983e-10,2.224520341648215e-10,1.8609741446214532e-10,2.1800307851548366e-10,1.755948821902109e-06,-1.5040513972053304e-06,-2.2405292838811874e-06,-2.2116726188931013e-06,-0.00010176891841284785,-5.367258644595926e-07,-6.522223859222569e-08,-1.5105687225513975e-06,-2.5865858903077713e-07,0.00010099338974694045,0.00046673104913741437,0.00046969832154011555,0.00046512057071193807,0.00038821480593753677,0.0003865356557071209
-80,4.0029619385983555e-10,3.979251063572282e-10,4.001656085989036e-10,4.0190497202968904e-10,4.0200726031323514e-10,-4.887194195113409e-06,2.5715416995808482e-06,2.5809858925640583e-06,2.5574806338801714e-06,2.835433770886908e-06,7.177119008837503e-06,1.620438896929746e-07,2.560236112003622e-07,1.9035573129526077e-07,-5.591549359624994e-07,0.0008273612130134111,0.0008269564442021824,0.0008315212020627797,0.0008352138549057031,0.0008360835490748286
-70,6.515736981009527e-10,6.59204227584318e-10,6.467587721242389e-10,6.434239275102042e-10,6.448153904970457e-10,1.2460666322766656e-05,-1.1964812074438669e-05,-1.195911318063736e-05,-1.1993499207343938e-05,-1.6298662209202064e-05,-2.238964633484811e-05,1.8700924177793092e-07,-5.579573780778446e-07,1.2980943351272813e-07,-4.498081815245429e-06,0.0013739866071256213,0.001375428867742498,0.0013502762721008766,0.0013426610480014034,0.0013516192557290196
-60,1.0583063851217399e-09,1.0587918071917297e-09,1.0588957887378946e-09,1.023463840690114e-09,1.02482450388e-09,1.0893959152546984e-06,-9.891482477542013e-08,-3.747627488337457e-07,-4.0983438785030524e-07,-4.738541233173521e-06,5.892067934359422e-07,1.9378134012996293e-07,-5.509127731784247e-08,1.950003571506958e-07,1.7474489280275612e-06,0.002201100064734063,0.002202901627204728,0.0022034588069041548,0.0021294960028868104,0.0021322176326066256
-50,1.6294436258738624e-09,1.6296913523218664e-09,1.6265595029241594e-09,1.625603575667931e-09,1.6276642035269063e-09,4.2101912089975713e-07,-7.078770067892037e-07,-7.960989023558795e-07,-8.028123310091506e-07,-7.229416501886021e-06,-1.180518822736047e-06,-2.47926652909237e-07,-1.9548822649539943e-07,-2.1856943477650177e-07,2.8128046872812765e-06,0.0033914763544671267,0.003391435513457641,0.003384895941760238,0.003382932231946967,0.0033863306744024158
-40,2.429771039271672e-09,2.4269704506277628e-09,2.4284522888051946e-09,2.3955292516114964e-09,2.406781123154062e-09,-5.953343289011315e-06,4.484718374442309e-07,5.401525413617492e-07,5.605276240661095e-07,-3.3991830497459574e-05,-5.995925651222731e-06,-1.8622925736152193e-06,-1.0804557177834795e-06,-1.4707289751737137e-06,3.601837880576382e-05,0.005063683742685288,0.005051588895651859,0.005053859807295121,0.004985739258076549,0.004983179736882448
-30,3.464257380653453e-09,3.4643635314862136e-09,3.459376661050458e-09,3.496769304941832e-09,3.44708598276133e-09,7.383205296029871e-07,1.0652638593455777e-07,5.19758032169193e-07,4.985742598773157e-07,0.00015518179707196822,-1.5373747119412808e-07,2.0546552035015257e-07,1.7078127001468602e-06,3.7652972995045426e-07,-0.0001574236736187753,0.0072081002661948945,0.007208172532730143,0.0071961560986891675,0.007275298529249241,0.007278159959241748
-20,4.703160047236152e-09,4.700183323822599e-09,4.7059617468961846e-09,4.718174197220021e-09,4.699107119443839e-09,-1.6892124889977822e-06,9.612565918359905e-06,1.003046054393053e-05,9.976844535741769e-06,6.912789729907054e-05,1.0217896188919238e-05,2.3005757576602738e-07,1.2496583536858452e-06,4.81960970619056e-07,-5.681885247961633e-05,0.009776362751078849,0.009776389565317446,0.00978725401854404,0.00981345042921955,0.009811360738240182
-10,6.05693872090383e-09,6.058166245258031e-09,6.0638170746971855e-09,6.0244742280277285e-09,6.046126185258992e-09,-1.1119555751726296e-06,-4.8870069804252125e-06,-5.04610943607986e-06,-5.07560722184941e-06,-7.289810743449365e-05,-1.9238715379187537e-06,8.859864958592273e-08,-3.002018615916313e-07,1.6442401520482786e-07,6.788968194707594e-05,0.012605163272676023,0.012606963302674376,0.012619163001339008,0.012536846271583357,0.012536780443042517
0,7.413802845384194e-09,7.413225199364078e-09,7.410946903053741e-09,7.411268384894606e-09,7.4313625176712905e-09,9.856086835569045e-08,1.0150223715754692e-05,9.85048245638609e-06,9.903163221691713e-06,-5.27615171810325e-05,1.014111089222119e-05,-6.535937407150501e-07,-3.0838896236673463e-07,-1.23787096558654e-07,6.388056096292786e-05,0.015415965955135835,0.01542220817868623,0.015417222362670707,0.01541768911823782,0.01541638351045549
