"{'distance': [0.172, 0.28, 0.303, 0.353, 0.537, 0.659, 0.835, 0.856, 0.967], 'solute_1': [8.16, -17.49, 14.93, -13.5, 15.67, -10.04, 18.04, -17.35, 10.35]}","{'solute_1i': '401.0 mM', 'solute_1e': '172.0 uM'}"
voltage,current,solute_1
-150,-0.000000036783197261938103546879118756251928317239457094344576724916890108627657672017424,-0.076535990973653981231758121693896392580656363184215921424497227858171187105912557
-140,-0.00000003559262739721744235050290129723035176571747711442267089346761496200750826235466,-0.074058733660460761941341449964353491868408683942839052231919485153978427334885296
-130,-0.0000000341214717985424262281089085398014867577692712332276329667804288778566389655708,-0.070997652514653404230731945434360043135982078758538089732200264183782751266907178
-120,-0.000000031868691944315790615982781474176729628419640200487601130999318564267043537807513,-0.066310220441772348046993694385383092009204722350947593057255113301565859175429472
-110,-0.000000027753788883661529930511881785433569751040632677953802902644272641792410875240311,-0.05774820824731903829501621545684986189546075802442595827813774033676303956539815
-100,-0.000000020520876544934345187658053356718323606239221974092941742915915506347090697915127,-0.042698453068943705981166898820439889724658709482887581799328139185410274807317545
-90,-0.000000011349029020069894637196273089670333130395707382789326368298066303529937279787365,-0.023614292592738024522893042795137083682144653056368963414328207541325684406016604
-80,-0.000000004318998586893956829361270371896204093983695875852187389079509797210208892395711,-0.0089866803722304552845707568279432668727386405855524803114531087743689577895138715
-70,-0.00000000087001154600952216391146305110302420822308109689150052570304970528256892825235827,-0.0018102612276519395754556080581445939421907492903889470821388566076538797981940881
-60,0.00000000044221537064166157518297708684195804983037294051327717217288378761693577458217213,0.00092013185734844272404601772046750979537302588647628971972018947294150155063719842
-50,0.00000000090000615723684942811551606726037512190374195913986953155960669450025300314274246,0.0018726719875922792842944733487087123786172738707655514064118791219349303625851387
-40,0.000000001066403997478274707675081500493345301374196362670166866801857488519388556984978,0.0022189013680363601806835070105810553758856631646976589068932141535650546248773011
-30,0.0000000011392467150353559378163310943635737602708480623464881147258491894790197701336604,0.0023704675718588346497029427113691169300922679597234344076884034915906895313585498
-20,0.0000000011829179329257383836517099841620985882805638017581970743100039288270878860700681,0.0024613356906486441495723346223644483977545175140366533133195440562763997663572906
-10,0.0000000012178616202394938002521629614347783039884966601859257001735455259832938061903048,0.002534044153640228453446456987147722054091399791037827314615105528114456446980061
0,0.0000000012505444783827443975867269661931659544614733187428307953748016989356340493264167,0.0026020484360856104700637526211952818916380120171450048205185937525544452212789357
10,0.0000000012830303581403102042884325581829937971432796665820169974854740982597364146351705,0.0026696428592182900509091700529953534665182410702001674984341088271245897604551011
20,0.000000001315995598639051603036626692465676761949672447803098963518402376922267198767855,0.0027382347037849596276853272722913283149496564803836334326737128255494678958903608
30,0.0000000013496763697364598525310558279899005033768071216273866748392718563691096452019853,0.0028083153760642110828280854671109303962299123650347692974754687548980268872150042
40,0.000000001384167432394546310563377184213244252509311754427797233055660175101407876811825,0.0028800820482616444117415795961542310302315264738831812814282179042838100896665527
50,0.0000000014195172298511327843049030181572299266626262507861470394794760116196416566843533,0.0029536355177926191799087319561933085021990473219436120516193398802516356910484314
60,0.0000000014557586558045659600699604047364898014255692029703752282747315850816418517428995,0.0030290442276416270359233374422504095514986244048394677713848792334625891131153247
70,0.0000000014929192885246099450320536266730655814941294404508422292992916713416368437309998,0.0031063655608085932964174791837786810929975610924773263220199920653768072103511524
80,0.0000000015310249502160179734391940068251099459352115504420277826707677033983509791421623,0.0031856532463920473709789519371947394875373050014123855829908389865293197632152649
90,0.0000000015701010323517693814060582889335710135205120100595900596969618657478814767290325,0.0032669601172529533380816665122637567190002571113652363064153223004227577180120221
100,0.0000000016101730386518665747334269143698753853168289833004135231241043593090079695208106,0.0033503392398082949800823951176955141217298100351927646313855970824173626961499833
"{'distance': [0.172, 0.28, 0.303, 0.353, 0.537, 0.659, 0.835, 0.856, 0.967], 'solute_1': [8.16, -17.49, 14.93, -13.5, 15.67, -10.04, 18.04, -17.35, 10.35]}","{'solute_1i': '401.0 mM', 'solute_1e': '172.0 uM'}"
voltage,largest element,smallest element,element difference,element ratio difference,condition number,transport error solute_1,current errors,smallest eigenvalue,second smallest eigenvalue,sum absolute errors,sum squared errors
-150,57409346.665393922073842855537636073318431473126138789669295805389360298064731953,0.0017843695616396109306464620339605237211619747165717655217959288298940202175232655,57409346.663609552512203244606989611284470949404976814952724039867564369234837933,32173462212.97451507338475948340718832651234791240454823251921352295552735332616,114818693.33078784414768571107527214663686294625227757933859161077872059612946391,2.2130181922429514352552526648426023900984750933867971049123240142307016495603719e-76,1.0635770134499815467795320135737836767850506821450535458242757741938454766733168e-82,5261276.821031346646751077351772410975518994000944784173961165503712780961908837,-4.1099167912512557498421907985573960100830288815340334836492920472798405253438934e-77,6.7760555944545901210330966837227477561362534695336880184237586546796063490641639e-77,1.1854859833034966925494678724757359453431657558038543168262967488665555498367757e-76
-140,56499332.066786246214685028400594368900758306023262368007546210093573248572144563,0.0018299070369643318201236416543309092993206756364857398694243142814985353379086878,56499332.064956339177720696580470727246427396723941692371060470224148934290646027,30875520409.230231202404860486275283076038752085280426294195462482454753665963357,112998664.13357249242937005680118873780151661204652473601509242018714649714428913,1.5873993619503934573987047992005215646001832176211748007336217258279276577209898e-76,7.6290422852346283274652337661597402796082238160790165893077927958608265408264856e-83,4216195.195458814931812598076412323556184160067675049262612610104037869642220407,-2.9448682289062245563093912231127661960098656318965520547079745992977041306626774e-77,4.1279265892098384817965425201012650858542945431323000307610651766080120185240185e-77,7.6327452975227996587421742007228126204455992547534433890333862532535471057037887e-77
-130,56161954.585415498679159733799210369295485377843051851183016655981150695310551557,0.0018766066379515440131522757593808444649758557834065206077385789883870763280998768,56161954.583538892041208189786058093536104533378075995399610135373412116322164481,29927398448.680996461857140146089134498121001539833835870879474515141124306769854,112323909.17083099735831946759842073859097075568610370236603331196230139062110311,9.5104462082739809545356095445897863349491470993278296767860899550445915943929129e-77,4.5707257545613204383339745482610840178890428659297435047829836024205024632189835e-83,3381742.9903176335983631775862033485433040586105087593881739361692112979552609805,4.2175523748737599185613438326732542305672991568290368840044446484458083233753907e-77,5.7975336343829722419527264400809453962685221001193981323987898780085944254640625e-77,1.0541361748206523670756226619477415106152503358526280332905712893766305761044452e-76
-120,56305447.056683047424822192529741823548335659274479372123766030037939168240244724,0.0019244980222852930298903335219754699176538655005481442049939620640034998999453396,56305447.054758549402536899499851490026360189356825506623217885832945206176241224,29257212220.889551376312154268004883292535841311432993667902757556453167826246795,112610894.11336609484964438505948364709667131854895874424753206007587833648048945,2.245403824324555602600451484328103888490160094753433160106162902243833868822231e-76,1.0791409604633523485707165480445747246443598806127782007078915130845472251602547e-82,2728812.5337316977445319452225912972897441491315878554315535022510260441755911868,-1.2928594883312539442617353368481451457726861764715553912399672827801217150965859e-76,1.3256584163367712170840297760894140364428530848297336180526642949778441955213775e-76,2.043501812811259313916220968091220494184749673946438977811631683664758119407763e-76
-110,56856008.747228225651575850958052594048743342806208569930155856079222002534225481,0.0019736116045197734886502238847660404280513310432082282502956397871925769105734667,56856008.745254614047056077469402370163977302378157238886947627828926362747032904,28808104196.905875524914540280092982726943533848824134932621952127005131843662176,113712017.49445645130315170191610518809748668561241713986031171215844400506845096,2.4181271954264444951081785215841118799124801020421587878066369716472057048854796e-76,1.1621519244151416750201945125593132108176341600498352930564878476061060501628652e-82,2239859.9288091237878315108254380884121588586529888980238862761952529722193604287,-1.0508098539948215055603688148576355753381646561796270633140691793556835201898014e-76,1.0127283321393721801558600252111724594054391184879951244083778963786629477311885e-76,1.3596812247155508219316252027761669506896741365699791510047275282580995766671101e-76
-100,57754442.892150363142812803751996152840582555590795843268848289083650504554207732,0.0020239785753948089000125185858538751671191180743790542799034640501666060138980565,57754442.890126384567417994851983634254728680423676725194469234803747040504041126,28535105852.533270708872677546776678347494045502813622882726412175036335189566433,115508885.78430072628562560750399230568116511118159168653769657816730100910841546,2.375892514916377211440632046791211366262842069254044954434137933527866201819782e-76,1.1418538833003240800320789642121872380694705265522007689858576561011466823493259e-82,1904286.9554744862505770309050167465122385764614845858116196773573164005207129515,-3.559359254513943770099747354948514169276622782585126275705287090186703765844333e-77,7.8612686775677836125016280073203044741874858301549313992936593009910238454163876e-77,1.4933744340053646553353014487584456197351618879498227169623560602333773540181101e-76
-90,58953429.670200156462102340835840143531548317566663699108871527481821633446140218,0.002075630921644268120776756855090911612179298077512128155583567181718195018428627,58953429.668124525540458072715063386676457405954484401031359399326238066264422022,28402655335.033540427937358894798036432620041455923377301806105937167755915035546,117906859.34040031292420468167168028706309663513332739821774305496364326689228044,6.9089348440755557003090814902403196568928002915490251080189627761348734425299416e-77,3.3204354162517552674341245992954882557145596733443556942961317094709180003570561e-83,1710601.486373003014649131865607469664019493883816822647800947656343949176938392,2.218810944700683386917991153281497020562408847264743675364669966302320399119161e-77,7.295423170534533513702507960743250629548926067443292641434300901314527180856955e-77,1.5059767475901224592419886410889029112143926117011966126482867202233197449542543e-76
-80,60415314.768573014800436119242607538377612940767957556291928722999690131581814698,0.0021286014463099952091291155080651918441902791205460870960199735244943363824650035,60415314.766444413354126124033478422869547748923767277171382635903670158057320362,28382633523.671173145313474210857014893291648807967356361922969127377962017294554,120830629.5371460296008722384852150767552258815359151125838574459993802631636294,1.3817869688151111400618162980480639313785600583098050216037925552269746885059883e-76,6.6408676906836927443232552172969253202127078425507833889445417475504010009667491e-83,1641170.2346333996321534186180357155808268144155887051236266374911518183688462068,-1.3270795966914775488167226798313241377356258949365926788477132084062236561583118e-77,1.0892819948452763379967248656341663238497922607728766316059500551809733732000685e-76,2.2080891699065468033720269654196099654164468541012790838121638253041901884844401e-76
-70,62136150.742413935094438345114421733850191387154067398552862598578001028166022086,0.0021829237895741557433851373892207813847465255621229076272594734370344560910062101,62136150.74023101130486418937103659646097060576932087299073969095074155472898763,28464645004.640973144667429188073399358155045178037620538797236391951681859459965,124272301.48482787018887669022884346770038277430813479710572519715600205633204417,5.9880507926763686798926802843561463434027557992586120424094043807850596146480966e-77,2.8778571748884010955396169597635306721027705733623805686324043233517203072807758e-83,1673669.0555721825724192016723846858016789228309129520025744250020051046405498707,3.0921483964865033805853507554563991804054392616257794632676708538069647203522124e-77,5.5723530851497987346691625212934693012211591694869806401189553988834897508964428e-77,1.1631623326855682487786605318114702346927292501994338541354651930748881910021979e-76
-60,64468863.656562658233603044523438809343763733523670820652914331920701903678446663,0.0022386324501232288370356237401624246626905504215617080478957830518920624288609682,64468863.6543240257834798156864031856036013088609802702313526238728061206265546,28798324465.016074524071409063009531210908876008660650326412037445129677280737067,128937727.31312531646720608904687761868752746704734164130582866384140380735689333,6.6125788349254880245493588334768598241218436849574524050725345606448294481828725e-77,3.178005383905405025108614888721774397484341828320297789344272128043918750178135e-83,1786272.5562683802202447089341363369209485513221802560808725379436179544123264336,-1.6453724372648221766139862951772509202152039719515548504344790190660922929420981e-77,3.2736211618426675264159245802702462550243678797256938787600079983910820761369622e-77,6.507543670534709664710090221678087835836973044065091981348842720077869176401869e-77
-50,66976051.904755705610045595499155571667219144476085350085912892508339267836212269,0.0022957628070572120397652234535857000670300971960006860002936236537353535902158144,66976051.902459942802988383459390348213633444409055252889912206508045644182476916,29173768169.285710893321833997624624753047022097857235160880889183431676616511598,133952103.80951141122009119099831114333443828895217070017182578501667853567242454,4.4683443662160441789098461031570555306975012028869448242262062010267767572522146e-77,2.1474862745780468831058015468336756706869452490894327118837514371668988809095878e-83,1962214.3566079651090900015653944760344031936234762074499475668548260734458148584,-3.5513651233152878685300221529178735036668188121373668126277807349185505321806833e-77,4.1839873520484568683698224498954674495971542400621628084964230105241588248207857e-77,7.2236815677334719617834886107211418515956177633361512977262481292164293371208256e-77
-40,69655919.809191465612067889859260574793445242684630930686368797354210695358868876,0.00235435114235795422413724965033015646246988107312373768367889402059469129125067,69655919.806837114469709935635123325143115086222161049613245059670531801338274185,29586036915.219428522605865523630866367055187076597653303497437125248469823001552,139311839.61838293122413577971852114958689048536926186137273759470842139071773775,5.1817011330566667752318111176802397426696002186617688310142220821011550818974562e-77,2.4903255803701233910302828303172251945307911599651642708321857597933650628467411e-83,2191192.6374004356651623227435402130199721384509314152884981632559221460571547598,5.516443405711763646879301205812669184983483861298932738615088233565601396285411e-78,8.1444777816615080523558100494535461572758100246668178377233708907225406463195884e-78,1.6262820045345890029214168512564421683078844725680846308503225117878684577404126e-77
-30,72509173.207892853534280334686135318933823989051807781201564332568218687161383099,0.0024144346639308845759008531142040114104799996773221237245191122559685252723706799,72509173.205478418870349450110234465819619977641327781524242208843699574905414574,30031532553.397972438593091339215156652551339063699610645729680619206406871452805,145018346.4157857070685606693722706378676479781036155624031286651364373743227662,1.5113294971415278094426115759900699249453000637763492423791481072795035655534247e-77,7.2634495275946354688762157034957075676102135003114705816030490475381628135179073e-84,2468552.9427206984921462737949029028084269401424819973551556961992073935795236738,-1.0867675435833791958828040927722547165350584919100182134129345992489040486988252e-77,1.2521706817910592556658365390392509570403361573329178641768527501765972874415069e-77,2.1528148182119480726726799535655699318288068216070628176126002580985938485827622e-77
-20,75538753.634595878536378603801700109519569701416041474133816564623866246830477123,0.0024760515292347714380619365149609207916602451345313960340510872218383345703351956,75538753.632119827007143832363638173004608780624381228999285168589815159608638789,30507747008.779448910692565165535384765383868052307301503532862305850977950978149,151077507.26919175707275720760340021903913940283208294826763312924773249366095425,2.0510900318349305985292585674150948981400500865536168289431295741650405532510764e-77,9.8575401874506658013317808562725032660147775426332997177168584567172292200073829e-84,2793846.883786883698250229778618033840347046523897748685360212679148441379606769,9.0130804431316779048158631493702568449309588299436523203645330235587070312880336e-78,9.4817707893167525562510014082229449213440967561264560171953966504269238290080198e-78,1.4104238405012026498832611776139595376015522907687878471223988937153095066468214e-77
-10,78749648.65572933428652378546998929826417012503976630004201487649163221819970104,0.0025392408695145170697639910599597519154368966776299136843205789761159353081153953,78749648.653190093417009268400225307204210373124329403364384962807311639223585105,31013067567.231480960162183447648645274671134203559989456155307917698351103980349,157499297.31145866857304757093997859652834025007953260008402975298326443639940208,1.6732576575495486461686056734175774169037250706095295183483425473451646618627202e-77,8.0416763328239673447947610016669898782295312749907783224812266613679533604963296e-84,3169593.7065792760331517749954818299142609338050167520982083455213611959197700871,-4.6691183640706819171454190776035801845899706018947289319758497795487159817675803e-78,5.5625153335002782898965843539184572790617679794330292942045916094147057569778984e-78,9.2698066404531557326462103135121671706322511561650407836917712901026589864544917e-78
