"{'distance': [0.1, 0.2, 0.3, 0.4, 0.5, 0.6, 0.7, 0.8, 0.9], 'solute_1': [15.0, -20.0, 15.0, -20.0, 15.0, -20.0, 15.0, -20.0, 15.0]}","{'solute_1i': '1.0 M', 'solute_1e': '1.0 fM'}"
voltage,current,solute_1
-150,0.00000000035865026068168315990570839421892767959950253060455838967337842404541347788998675,0.0011193828360851534894869480952352281206629708691030377135835072271320687782312825
-140,0.00000000039045928392690774466505055750505992323598788406429227300154333634831329922751309,0.0012186619348530204881353434178538739634803733326876330834184035384291399602134697
-130,0.00000000042476925453767106256375069965586888694964625820213755324134349825864688841588369,0.0013257467370089609364271655359524364841055615894918748628449075923126336750986673
-120,0.00000000046179650631528850816303921365296078851452065998140817509911677522072325930429905,0.0014413124416831726950745359781997092567858962118616903350044758406054483338636309
-110,0.00000000050177518435765475152672859013916155261935670003627367418568530042177092563278367,0.0015660898388191472437143024498035300872233395630265991473642936987405101281839787
-100,0.00000000054495882679077161578529370063294547116518661869572811281214786408192429398000399,0.0017008702459137691739297623740703385969280892571875047757399747506994393605863487
-90,0.00000000059162202534698838061541444067953451382231438900503225046926877737212522436271786,0.0018465106908457815559161640394241342638288261839169685995729611828051351995881083
-80,0.00000000064206218992165703741793861413529573514403941404163740867431999942922447412209782,0.002003939419231139419061393439692716039669605357323113464817640921320076635638201
-70,0.00000000069660143505882315409271511294929216350523002161767036615849114314658077670252538,0.0021741617823309088305194091097039301784667506628940302416433980372249406925834624
-60,0.00000000075558860402556236726324037207287656871804714385142790755134658961435751503403514,0.0023582665543868988934148262391369908960999649507365085024291148415024319217096706
-50,0.00000000081940144673913764471306349986843397822718541954148307580157240041814090737014786,0.0025574327301471213674312912080435868576522151549854895044312975199017161331750189
-40,0.0000000008884489697745929830173541916255861269374761787346023597884464926797094457897499,0.0027729368594712641320814150484646884290008168828717741678424727299629715733355262
-30,0.00000000096317397888076033212554730522459437617878341681854918992018579214166339068643689,0.0030061609827739088040063148691407285115309376490833608830284626072025485036444897
-20,0.000000001044055836184421600212411882401282114836008167236264401061896986433351349394204,0.0032586012365306543476223316091126126524837441469976693136618428295429950279560088
-10,0.0000000011316134553092782026367129571432029312827552064898484775228473570929419313839699,0.0035318772013398197872271885252914964943157419322262929157727018653176799251833345
0,0.0000000012264085580717973236609147275652623308149054030518660505441071685115248505134184,0.0038277420663913776081231739727085664256158448411517348759910500481576780142392247
10,0.0000000013290492165436279524468158411048305152899921024666383416272408311953871996776812,0.0041480936845930961910610062556998908928634705351888375745729665618719573872768108
20,0.0000000014401937044518986889711950463458688856438294915608562319624986666137779655770571,0.0044949865931707202302043788796183858629345507860766801729048985431244339441349652
30,0.0000000015605546824261602213710611294995417335874162730055007799065734627572294371970483,0.0048706450762364553690396404998319366475975616204851475116188741763653939357415394
40,0.0000000016909037426764019971863154837868834277079044946211381559387515089832641264383584,0.0052774773491772849021326371624616835992565162145475813894575393303080227150868579
50,0.0000000018320763403594759338125714898738998278682046015703534636967626003608536754502119,0.0057180909499359426541957179470824643475504041043782003207834518770288234434967622
60,0.0000000019849771411285790701435601581012359480177783652889736144348128920833518024842359,0.0061953094292402595832171853515204722315123257501573951383959539158273822108298004
70,0.0000000021505858170809911522177387738712714325782744230819775001486056359612809818562366,0.0067121904403276880802331478765952581150456921180423349307469858523814738573826952
80,0.0000000023299633264317190250940398702517007950932693223967263544497590878615308191498336,0.0072720453384260897092653051150868301869155687586791808476812755414976544864005857
90,0.000000002524258715668745119245985917288483096922204671218408580946098843349061026392944,0.007878460410951139971348595894791066699918352818253303471085950516533245469402877
100,0.0000000027347164866394158658529991258770486321296237909242832804543247877923378258797828,0.0085353198709095380900857617328917530228015671448279152095462673629447959617310759
"{'distance': [0.1, 0.2, 0.3, 0.4, 0.5, 0.6, 0.7, 0.8, 0.9], 'solute_1': [15.0, -20.0, 15.0, -20.0, 15.0, -20.0, 15.0, -20.0, 15.0]}","{'solute_1i': '1.0 M', 'solute_1e': '1.0 fM'}"
voltage,largest element,smallest element,element difference,element ratio difference,condition number,transport error solute_1,current errors,smallest eigenvalue,second smallest eigenvalue,sum absolute errors,sum squared errors
-150,562038.35590954800392389052013210231740294524337589953871870778127869175171054487,0.0000000061953519731151947183736521821013442332842955159909168127828280803610636526420798,562038.35590954180857191740493738394375076314203166625442319179036187896888246451,90719358375201.326593752315758248088262038555668033781565578356238585511479592039,1124076.7118190960078477810402642046348058904867517990774374155625573835034210897,5.4975915055518548845724009212677638184737493927585771794350834525466299329861832e-82,1.762364554041883832561382131840072955828102368987302393875046133070170786445096e-88,0.72414200033803113783064968399108534591694560066081745859200445873138723246956181,-2.5394975911562267811641282030888105267959248722619554511425938507546810190307926e-82,2.8301759229746297067840661515201303745705411507042049089669472631327445004171786e-82,5.9928419648523161318257085594695558317385777238844077430880928039668792925900664e-82
-140,608847.60417436808791071328815493264059101794377929348162295844348021238890413727,0.0000000057190306780013344095550360487586808763279001603121466876027781583129747306929093,608847.60417436236888003528682052308555496918509841715372279813133352478612597895,106459929742350.30441346351341818238296457733089351885431321159627641645382509966,1217695.2083487361758214265763098652811820358875585869632459168869604247778082745,3.1297150143965615822284829214707868929138947853906506789293358980789803363816474e-82,1.00145506692073621683153747881720023116694396454988771128275601990616947196323e-88,0.78441840623598885104165682113573283654637281955126622918910750202199145269548271,1.7515394089505930444868930300909216646959892187811640951505777887693300397186988e-82,1.6993123161963732305601767724724536359400168521041365822884774866126272314268384e-82,3.0704994487402365227207415561425975500677275101335014029253518881363779960471302e-82
-130,659555.5557491264754001529809413291035747823673991867467202365518447075287033689,0.0000000052793307043496759318332038446150314852343258698939587440177358784160437634985448,659555.55574912119606944863126539727037093775236770151239436665788596351096749048,124931661357322.10048335723869267040222586905876323041676821022222010521783366449,1319111.1114982529508003059618826582071495647347983734934404731036894150574067378,6.1976593377195068174392984168599135182044890158064858839324349034327176398083938e-82,1.9881828534455792540037876417694416354049622825622770738701773924607776281622949e-88,0.84972235349512187010672606491267809958567079531325922842364154288407074472062935,1.0350374438619116348200092434912400498854666105637850833396989257960279981320983e-82,1.7918861405343711643120201524305646278786462881763696378080621407801460854973802e-82,3.9947524065090043978320481705101316918122007553692718261597695741882844063025033e-82
-120,714486.91464397141543346708379639776604438907304650982207583615890825511300799781,0.0000000048734364711660569663205741304636087576680413406607739508696451750426942548787829,714486.91464396654199699591773943144547025860943775215403449549813430424336282277,146608439213534.59719300262722784345889330457381947163686758803838593990165050207,1428973.8292879428308669341675927955320887781460930196441516723178165102260159956,2.6973201768812471531048109388991650195507909005669423614456776490022791056973408e-82,8.6400044989239987334485586407758451316363793019990312345963264462493052483102199e-89,0.92047103261242096546047991702015304720125564122855358600704848500783267409847465,6.4897865961053879201352360998561070102649678165517845477479404259127659815849316e-83,9.7696388715320396774869978474115175822194805916785531379470159986364263995484208e-83,2.1916788026432803931382057644611472596436448785595214006946963131206535375590321e-82
-110,773993.4290948727964494894263115558585431638564448033159089405069887821261849865,0.0000000044987488696101899712789573840600317146189365552122790307172099712567715975174936,773993.42909486829770061981612158457958577979641308869697238529470975140897501524,172046373675874.51004204048832220496817282320865385548070867111928417640566105148,1547986.858189745592898978852623111717086327712889606631817881013977564252369973,3.2944368572595385076089293910218809399093629319901586093993009453462950909280499e-82,1.0505460015737134823624951983670629875966961196748822069338715110780405245104472e-88,0.99711670727690162505323622702337172944535700347764781737618726379966963495118193,8.8581265425020063175987154887439243026425866065782073400385062489536964198288026e-83,1.0497921160426813882740466764525900980875950722821431396389039411807140629841708e-82,2.3245897814807402736930645198572025670210299573027169277464256552760867224169916e-82
-100,838456.14395322182135710498017451191582334012697247631802025783331555205819890733,0.0000000041528686198255664679554807245783703393918156547589683444193054080028713744343699,838456.14395321766848848515460804396034261554860213692620460307434720763889349933,201898066303007.58567587364013157372728631216486149413256298823721897473255630903,1676912.2879064436427142099603490238316466802539449526360405156666311041163978147,1.585447737556152906786797269429280202331380911020263830773413579947904512509124e-82,5.1054572039096356152196028331857266686942241329994275477160110818745894649105845e-89,1.0801495660781098698031158080446667009654193975449692169686728374538181710477207,1.1865663214006535911355689917709324329659806208457565618283818973863872393197253e-82,1.0207197057062216744109481378922147385713773726614957773895578534117470123273977e-82,1.8492958203618814502753763073684579136280963933821508066694626365949330364146735e-82
-90,908287.84067379106743427982859792078889409903986742257988795670339749342205530631,0.000000003833580907357087413038667484444172789544110353914992601151633406774147488981304,908287.84067378723385337247151050775022661459569463303577760278840489227042189954,236929352118454.34465311349566091780350188857675721815265143979187297216213112109,1816575.6813475821348685596571958415777881980797348451597759134067949868441106126,9.6774082681998943661012300861267752609837536127210909151104465269547418296011465e-83,3.1418198177905449939812940511912164115041379279996477216713914349997473630218981e-89,1.1701008264673052216589928751085051128483551668215428899805507401709108389162007,6.0324621866090328355785281084765937900287167228906267317566766257567785953570187e-84,5.3914565986531128128096744836079216001731261009507450843369754732202073123360882e-83,1.2980727358536670934662929876436583974506681520730371451648808471878613910144799e-82
-80,983935.68052530601851743525307587678238161853730532230051718083199109379519895601,0.0000000035388412007770387468351034380527725948219392384753391754524048181507068597996025,983935.68052530247967623447603712994727818048453272747857794235665191834279413786,278038946847702.28844615710178101698921277868102071388562625309376914570304203423,1967871.361050612037034870506151753564763237074610644601034361663982187590397912,6.5888737145190770152178587820437618798187258639803172187986018906925901818560997e-83,2.160001124730999683362139660193961282909094825499757808649081611562326312077555e-89,1.2675461088632953211334251597597214383616251921706487019890412192032424329811579,1.9545248813741317163241247553030669830278134612047027227893813338260635377596092e-84,1.992338896309052537811593318786854920350599843008112697127885791982293488794438e-83,5.6323507226908015214009681111083722888019387328832166850546180205351204446911698e-83
-70,1065884.0679492011014489103723250262936981561005669605119755040536407041939533565,0.0000000032667621597037951375041679778592880534809817574151866700778915180493675901710405,1065884.0679491978346867506685298887895301782412789070309937466384540341160618384,326281503164542.37036610495878085518479193100127339431574524484252341287838508581,2131768.135898402202897820744650052587396312201133921023951008107281408387906713,3.2944368572595385076089293910218809399093629319901586093993009453462950909280499e-83,9.8181869305954531061915439099725512859504310249988991302230982343742105094434317e-90,1.3731091009386375494225466244753227110249383244374568709056666195765327763685587,-3.0513579643226503412081442575890425407893982267885378022580070492399481137155129e-83,2.5095144902665449328250944681724246280078510666766428226007785280933303844819133e-83,5.570306533877231982674690441901689888011835557855622958478606050208261855895207e-83
-60,1154657.7524018315301284186920103961595300564920408516640383460555232064148074024,0.0000000030156015493798827405943591521311157736586868107322608084943322390511744822328032,1154657.7524018285145268693121276555651709043609250780053515353232623979204751634,382894667446788.8909085338760818172800407283668702513953192388150987666569911186,2309315.5048036630602568373840207923190601129840817033280766921110464128296148048,4.9416552858893077614133940865328214098640443979852379140989514180194426363920748e-83,1.5709099088952724969906470255956082057520689639998238608356957174998736815109491e-89,1.487465534309545017498450745857678741758973718969645552915051652729742761839083,-3.6762274387884218063348473735188483926365303349780497384138563311163191173153715e-83,3.4319371612591065184913663503566740393680670092190705491386825581612568938341713e-83,8.4414453342506694962339191025392532625378609407144948865931215480979611402480252e-83
-50,1250825.1885425207624495741193728316641211237278838727129733132211720575630944216,0.0000000027837510844214354986583658356857411637296505525275093248029712681637374073259042,1250825.1885425179786984896979373330057552880421427089833227606936627327601231534,449330831173250.40242409020776650342286485332957911848517896063283853939956001003,2501650.3770850415248991482387456633282422474557677454259466264423441151261888432,1.4824965857667923284240182259598464229592133193955713742296854254058327909176224e-82,4.7127297266858174909719410767868246172562068919994715825070871524996210445328472e-89,1.6113474981147849999950851998970877412235632406969521875867832849617156467865665,1.0283151227251780746895354641111880884847264264743733245837682097853675464933874e-83,1.901057679507365813164665676912774172658123124245174860194272626846323360233487e-83,4.5301323241009952590293125345374762185308850914622555469743840145757343519601491e-83
-40,1355002.1762841194883379164718627633903179653723811563164222869285256657220338273,0.000000002569726130300950801608589387276145349577203522675373899729393769226666690166076,1355002.176284116918611786170911961781728578096235806739218764253151765992640058,527294391533244.75807944291446043649486365473768487208318229903021347356961031479,2710004.3525682389766758329437255267806359307447623126328445738570513314440676545,4.5298506787318654479622779126550862923753740314864680879240387998511557500260686e-83,1.4727280395893179659287315864958826928925646537498348695334647351561315764165148e-89,1.7455481163331567254169509010023522971924831885472561221400870951253498136230419,3.4650378206383690597139102508747226406423069107370048556695444536132548883532966e-83,2.8080973821125414423638607629786269216518021821083644405114340248845536205494063e-83,5.9726950633187417558153381249008465700715214546352084142069364299826003931535413e-83
-30,1467855.8040148269061539287404353441535375422985157245779554963933835443582430497,0.0000000023721561966176816216911233649046681519284732862891284778105621289425818174413104,1467855.8040148245339977321227537224624141773938475726494822101042550665476809207,618785477156924.31964320959671618946902186645365622510379709916399550161372741273,2935711.6080296538123078574808706883070750845970314491559109927867670887164860993,6.5888737145190770152178587820437618798187258639803172187986018906925901818560997e-83,1.9636373861190906212383087819945102571900862049997798260446196468748421018886863e-89,1.8909266181819639284908388614354061623744027520168401325577236688915926389437475,-5.7735473190625813244650717445616226885572386336040871377330154644884991805940639e-83,4.1908452212792063169424138888736085157730721819416986500797648294485220493793128e-83,7.5847035326929207348768503371873747314767000492873368302651322270414881764452589e-83
-20,1590108.7202413557254859263260649677493098436613571057470781447286653062253400767,0.000000002189776161280132312615290894182751132942943741078526602055421943662639685070156,1590108.7202413535357097650459326551340189494786059728041344036501387041699181331,726151260735154.78987246054715382196437682089752685513795210312762389104994974262,3180217.4404827114509718526521299354986196873227142114941562894573306124506801535,4.1180460715744231345111617387773511748867036649876982617491261816828688636600623e-83,1.3745461702833634348668161473961571800330603434998458782312337528123894713220804e-89,2.048413833585162530103915761584019589578428722241374388781610858328073717745875,4.5273942665436997715496398502842502597691420931483236133506482829038976662987109e-84,1.1875553324166876366087021325420581522554051782486777277213962838462754463946768e-83,3.5254588686020026583161243846192640399968378609747748996734905407706880225001003e-83
-10,1722543.7610065418152717267177241046933900164667993655794208007715081468096417413,0.0000000020214181694054682399674818278568526306794292337619148260781735884405760997711368,1722543.7610065397938535573122558647259081886099467348999915670095933207314681528,852146174936762.23384390479349484188232114589463871696167863143230447060794705637,3445087.5220130836305434534354482093867800329335987311588416015430162936192834825,2.0590230357872115672555808693886755874433518324938491308745630908414344318300312e-83,5.890912158357271863714926345983530771570258614999339478133858940624526305666059e-90,2.2190181485236483041524535764514679359136421228711782450025778352883976998903232,3.5608443759802046328058447697563084941692012332091158633052005618011548406991813e-83,2.8753244409957660810255348714614316607973841695775497819316231010847982753708475e-83,6.7093165834802096446127780382848618668973715126680596329069199484866147189968028e-83
