"{'distance': [0.42, 0.587, 0.764, 0.843, 0.932], 'solute_4': [9.79, -3.42, 16.34, -4.19, 12.8], 'solute_3': [9.37, -19.13, 7.81, -18.18, 7.09], 'solute_2': [16.65, -15.56, 3.85, -9.5, 15.68], 'solute_1': [11.88, -10.43, 15.42, -9.99, 13.3]}","{'solute_4i': '106.0 mM', 'solute_3i': '204.0 M', 'solute_1e': '93.0 M', 'solute_2i': '401.0 nM', 'solute_3e': '14.0 mM', 'solute_1i': '40.0 mM', 'solute_2e': '350.0 uM', 'solute_4e': '439.0 uM'}"
voltage,current,solute_4,solute_3,solute_2,solute_1
-150,-9.793069278482403e-09,-1.0090333252071323e-07,-0.00015144783532808508,-0.01991070143579352,-0.0005474837323948495
-140,-5.720182229973851e-09,-5.798405300798452e-08,-0.00010196637107608207,-0.011554719982264056,-0.0004191195819884296
-130,-3.3071983632295956e-09,-3.172339247061847e-08,-5.425496988197167e-05,-0.006631294352951449,-0.00032084818535744086
-120,-1.8932820147996137e-09,-1.8278492657115112e-08,-9.772756055361154e-07,-0.003774996897378677,-0.0002456198569657825
-110,-1.0678715223646928e-09,-1.0413768409962906e-08,6.834828188612428e-05,-0.0021421572922307435,-0.00018802906484960603
-100,-5.742089753651925e-10,-5.7156907980601634e-09,0.00017004132799546882,-0.001212170053601824,-0.0001439405185171864
-90,-2.585428614708093e-10,-3.2385218341099228e-09,0.0003307281760536681,-0.0006849811329624263,-0.00011018938871120163
-80,-2.227472036464732e-11,-1.7994372842823155e-09,0.000594865129655868,-0.00038668828450835405,-8.435160287800763e-05
-70,2.068701639966491e-10,-9.781989545546565e-10,0.0010374984628682149,-0.00021817529996784592,-6.457186085943398e-05
-60,4.972463788209667e-10,-4.770981589567848e-10,0.0017859363019280742,-0.00012303404513018515,-4.942952850763491e-05
-50,9.339074231404214e-10,-1.3157884770556295e-10,0.003056650391244869,-6.93303492018333e-05,-3.78374942298356e-05
-40,1.6437808531485552e-09,1.8160998948043877e-10,0.0052179978313876075,-3.908868689931808e-05,-2.8962910068611387e-05
-30,2.8328318054887667e-09,5.793292023348406e-10,0.008896966006359867,-2.2167421643593128e-05,-2.2168285058172097e-05
-20,4.846664160743662e-09,1.2135359779206377e-09,0.015160964457813784,-1.1388929690926603e-05,-1.6966027327733836e-05
-10,8.268143462853892e-09,2.4198175414056626e-09,0.025826124114150757,-4.969450863884069e-06,-1.2982360172090098e-05
0,1.4037468113709154e-08,4.544519376030793e-09,0.0439804219261207,-0.00010544830257993028,-9.933836754104068e-06
10,2.3741865404960776e-08,8.564476364581004e-09,0.07486937640229743,-0.0005073963545872338,-7.591206017597969e-06
20,4.1600704086277063e-08,1.4824676127638139e-08,0.12738717212860837,0.0016389776835999625,-5.760496899320617e-06
30,7.654054463149206e-08,2.9020147904205466e-08,0.21656546733308282,0.014886322201154021,-4.405427544914168e-06
40,1.1932810254497697e-07,5.632708124429034e-08,0.36771519712181794,0.003148621503946913,-3.436886534350773e-06
50,2.1609906952723536e-07,1.022554401971768e-07,0.6230764995468683,0.03426156434721372,-2.490314658901986e-06
60,4.2260841791389463e-07,1.8513906989009257e-07,1.0524352792489353,0.17771204551953357,-1.0724469071232707e-06
70,5.861773349105472e-07,3.5281876036312504e-07,1.7687652859115657,0.040501256048525745,-4.24210786714913e-07
80,9.42787077648835e-07,6.306590887498351e-07,2.9494159046500883,-0.004592511009638227,3.3692116753922465e-06
90,1.5497331435078776e-06,1.1758892510942162e-06,4.860651145379449,-0.01585948891533774,6.310139323757405e-06
100,2.3431433307199207e-06,1.937102471963677e-06,7.8674458010162684,-0.3695048557518277,-9.991332119451096e-06
"{'distance': [0.42, 0.587, 0.764, 0.843, 0.932], 'solute_4': [9.79, -3.42, 16.34, -4.19, 12.8], 'solute_3': [9.37, -19.13, 7.81, -18.18, 7.09], 'solute_2': [16.65, -15.56, 3.85, -9.5, 15.68], 'solute_1': [11.88, -10.43, 15.42, -9.99, 13.3]}","{'solute_4i': '106.0 mM', 'solute_3i': '204.0 M', 'solute_1e': '93.0 M', 'solute_2i': '401.0 nM', 'solute_3e': '14.0 mM', 'solute_1i': '40.0 mM', 'solute_2e': '350.0 uM', 'solute_4e': '439.0 uM'}"
voltage,largest element,smallest element,element difference,element ratio difference,condition number,transport error solute_4,transport error solute_3,transport error solute_2,transport error solute_1,current errors,smallest eigenvalue,second smallest eigenvalue,sum absolute errors,sum squared errors
-150,1224748903815974.2,0.003098955645211586,1224748903815974.2,3.952134344705513e+17,1.0134676461266198e+21,8.563232824831957e-05,0.00042290709547590673,1.276877038510274e-05,0.0005563984037664227,2.5239931006801338e-11,-0.00086419902686954268,-2552.8092716778092,0.00066333200747988768,0.0011536601593591339
-140,1221045218681727.7,0.0037865873045126669,1221045218681727.7,3.2246588299351942e+17,1.2346998350679418e+20,0.0017088504445759156,0.00922288902188484,2.9576992652113193e-06,0.00609216289542464,5.461327283995941e-10,0.015879244465434685,-3031.3854102252781,0.0098429574965488691,0.015860692301782491
-130,1244422831096499.0,0.0046267985270623431,1244422831096499.0,2.6895980532063725e+17,8.5350552455491709e+20,0.0007077387410946412,0.01280480521359083,0.001532373765124868,0.013868242976467321,6.237629631781701e-10,-0.027004403257036461,-3641.3802397523859,0.018940557087988783,0.029214501648130817
-120,1298064413718534.5,0.005653445408353365,1298064413718534.5,2.2960589869684646e+17,1.3806697345719811e+21,0.0006689768192567058,0.00021056218601354774,0.0004346150056048505,0.0006250538322446486,1.4792262438316072e-10,-0.00051171766756124963,-4404.7235226774219,0.00087806049744795344,0.0022757068280405812
-110,1386145149548473.5,0.0069078964208810637,1386145149548473.5,2.0066096320704218e+17,7.1901631958806377e+20,0.0006320905177944549,0.009952640222763875,0.00028888484366442467,0.006236186643183818,1.0430680232023791e-09,0.020004532056696878,-5350.2861590555158,0.011749274758037678,0.01990000750633009
-100,1514023960547491.5,0.0084406993461214191,1514023960547491.5,1.7937186226674448e+17,3.4300022604093179e+21,0.00021445766665829683,0.0015192256654095132,4.22098694395081e-05,0.0015559916653029582,1.016601605850685e-10,0.0032096346593219797,-6514.8213536029716,0.0022003360130990282,0.0037004849171199338
-90,1688480105879997.2,0.010313618084407762,1688480105879997.2,1.6371365432201328e+17,2.7313975458071241e+21,9.639768760427714e-05,0.0031098400045266317,1.575328777598064e-05,0.0030783680626009224,5.3240740615512386e-11,0.0064232180175167741,-7944.2925688482765,0.0043379277444309588,0.0064181785236823762
-80,1918004919344526.7,0.012602121415437118,1918004919344526.7,1.521969878019937e+17,1.8644785310004821e+21,2.6792590049673493e-05,0.000803650432303489,1.4876117536805468e-05,0.0008713660352569488,3.5678161342778674e-11,-0.0016964276684955741,-9695.6123093854421,0.0011832525255585165,0.0018132813294002639
-70,2213160653480720.7,0.015398423993371905,2213160653480720.7,1.4372643943518851e+17,3.2670712645112992e+21,2.6236755806818834e-05,0.001455455164432351,1.0334683588159195e-05,0.0014114668664133947,1.0287526625268104e-11,0.0030312336641048336,-11838.853815842094,0.0019834620340019962,0.0029512518309551747
-60,2587021080411760.0,0.018815202112653747,2587021080411760.0,1.3749632158731456e+17,1.6509843138717551e+21,5.5335836643743974e-05,0.012663134355136947,8.101618649504545e-06,0.011467503335234478,3.594846555869122e-10,-0.026826355793585055,-14460.010259827279,0.017110500378228789,0.025528859145419452
-50,3055711774548858.5,0.02299013397035897,3055711774548858.5,1.3291404819513309e+17,2.3162203444355004e+21,2.5107525366774297e-05,0.02760375441812357,3.402701136135755e-06,0.026080635983425526,4.984627216655124e-10,0.058322460683743513,-17664.392461774889,0.037894072123814029,0.055276996432084433
-40,3639072001594863.5,0.028091447373801603,3639072001594863.5,1.2954377014367379e+17,3.781850982140273e+21,8.1309907124405e-05,0.0671680956165801,8.300151043335383e-06,0.06283990357805548,1.3712396705758402e-09,0.14215933858523946,-21580.706678678118,0.092035325879129964,0.13477764668721712
-30,4361465022791005.5,0.034324698436837497,4361465022791005.5,1.2706491888972437e+17,1.8014829586189516e+22,4.0166450243184215e-05,0.0009332627160615857,3.117625230336927e-05,0.0007810597169834062,3.3062457906766196e-11,-0.0021344566056985632,-26364.490333432728,0.0014120949097277454,0.0029048290490251592
-20,5252769589696229.0,0.041941054410696635,5252769589696229.0,1.2524171515241077e+17,8.6231746826159299e+22,0.0002800336196524533,0.006105316662492364,7.872689913412927e-05,0.003977509339460093,6.256636767028167e-10,0.012897220162942232,-31192.051916324293,0.0078773686579322339,0.014411942827459282
-10,6349592693224887.0,0.051247414403885617,6349592693224887.0,1.239007424488416e+17,2.0808393786740837e+22,9.115631922895773e-05,0.04612650598746305,8.291988853506308e-05,0.005550083427774724,1.2974680049023196e-08,0.097428922412978319,-35644.283113744888,0.065040263118261346,0.10256049915996732
0,7696752534737626.0,0.062618775802970095,7696752534737626.0,1.2291445235140733e+17,9.2589673902132523e+21,0.00085023767733583,0.07165733100555371,0.002381477856944614,0.06277915352799066,2.101403877753513e-08,-0.011265934668195246,-40721.073824854313,0.087846770624261855,0.13464275514259555
10,9349091565340274.0,0.076513344695987848,9349091565340274.0,1.2218903254703117e+17,8.0436554199699775e+21,0.000469405086633623,0.010257380175971775,0.006435774142869546,0.005207310884518696,2.3863343694645315e-09,-0.02126453805592159,-46507.226175797543,0.014313791931836959,0.030815697195498027
20,11373692730420872.0,0.093490999169124234,11373692730420872.0,1.2165548375246243e+17,6.0481888756516478e+21,0.0006253927929228409,0.4426405023004918,0.011628297999934294,0.3368845821484478,1.7207654085921803e-07,0.42121694507281798,-53091.357941698356,0.54138860552510992,1.0743245037025049
30,13852588295293848.0,0.1142358494504491,13852588295293848.0,1.2126305675437326e+17,6.8386934818838109e+21,9.139511163824832e-05,0.10264593988225165,0.062097111528988745,0.10295988592150847,1.5909038016800256e-08,-0.11365771949641555,-60565.836220474572,0.14734628942897779,0.31182346102002134
40,16886070468868912.0,0.13958380395591521,16886070468868912.0,1.2097442532947478e+17,7.8833348838843456e+20,0.00012681126443705507,0.6850002842487655,0.00835661460686794,0.5453863455969022,3.3752563869461856e-07,1.4581452338479144,-69013.572230850754,1.4591757003503782,2.4611504853454216
50,20596737284925800.0,0.17055625200436395,20596737284925800.0,1.2076213591043734e+17,1.6878802527326949e+21,0.0013652149681449828,0.317599165635329,0.06390023090880097,0.08963944795216788,5.354108862218725e-08,0.47932713278063671,-78505.42563092128,0.25264728055060448,0.45165887568273189
60,25134436821631484.0,0.20840122043789136,25134436821631484.0,1.2060599630280072e+17,8.0690940759947044e+20,0.000490114093734155,1.6032545478956308,0.2581042062386658,1.424285004352128,7.264371553883675e-07,1.8142994824367391,-89060.210192836414,2.3078054696096886,4.5364519793746467
70,30682309032887644.0,0.25464366254302617,30682309032887644.0,1.2049115507715952e+17,1.1577622941264807e+22,0.0005222782615858403,1.5973277190678346,0.050119780477901124,1.5927387946351768,9.048085696168156e-07,2.6884010972921124,-100621.10366274338,3.1920278871976748,5.6483561378547993
80,37464168688268576.0,0.31114690565188663,37464168688268576.0,1.2040668895542144e+17,1.9674020754417742e+21,0.0013414843866155417,1.888419973236303,0.005166833732781215,3.2506051500492275,1.3773485910413396e-06,-4.2157011373401767,-113005.89144333881,6.0359831631276792,10.2782937916325
90,45753526953608784.0,0.38018773343862811,45753526953608784.0,1.2034456382847648e+17,1.5638224917657908e+20,0.0010739467844655959,5.559619156108965,0.017025544143354707,4.789973016325857,3.0861854129248984e-06,11.162946518633559,-125826.68148778011,11.228988330880773,19.285824984781723
100,55884615169015504.0,0.46454812833304154,55884615169015504.0,1.2029887058107138e+17,2.7253202431324946e+20,0.0016018800490045417,6.848847283414216,0.38242070721781374,5.6245077253423394,3.6727665013128962e-06,-14.179726695940662,-138591.36903489448,13.243925506632442,22.926063171792809
"{'distance': [0.42, 0.587, 0.764, 0.843, 0.932], 'solute_4': [9.79, -3.42, 16.34, -4.19, 12.8], 'solute_3': [9.37, -19.13, 7.81, -18.18, 7.09], 'solute_2': [16.65, -15.56, 3.85, -9.5, 15.68], 'solute_1': [11.88, -10.43, 15.42, -9.99, 13.3]}","{'solute_4i': '106.0 mM', 'solute_3i': '204.0 M', 'solute_1e': '93.0 M', 'solute_2i': '401.0 nM', 'solute_3e': '14.0 mM', 'solute_1i': '40.0 mM', 'solute_2e': '350.0 uM', 'solute_4e': '439.0 uM'}"
voltage,"current, barrier 0","current, barrier 1","current, barrier 2",solute_4 transport over barrier 0,solute_4 transport over barrier 1,solute_4 transport over barrier 2,solute_3 transport over barrier 0,solute_3 transport over barrier 1,solute_3 transport over barrier 2,solute_2 transport over barrier 0,solute_2 transport over barrier 1,solute_2 transport over barrier 2,solute_1 transport over barrier 0,solute_1 transport over barrier 1,solute_1 transport over barrier 2
-150,-9.798037045405973e-09,-9.793069278482403e-09,-9.772797114399172e-09,7.839636060680277e-05,-1.0090333252071323e-07,-7.235967641516794e-06,0.0002714592601478216,-0.00015144783532808508,-6.111524999141693e-05,-0.01991240414801132,-0.01991070143579352,-0.01992347020617862,-0.0011010875459760427,-0.0005474837323948495,-0.0005446891422096201
-140,-5.357456831304426e-09,-5.720182229973851e-09,-5.174049501574257e-09,0.0017056184636317084,-5.798405300798452e-08,-3.23198094420718e-06,-0.00762447196143512,-0.00010196637107608207,0.0015984170604497194,-0.011552100137550925,-0.011554719982264056,-0.011551762282998845,0.00567304331343621,-0.0004191195819884296,-0.0004146444584622877
-130,-3.930961326407766e-09,-3.3071983632295956e-09,-3.7170835799870385e-09,-0.0007077704644871119,-3.172339247061847e-08,-2.141232904984136e-06,0.012750550243708858,-5.425496988197167e-05,0.0007983916439116001,-0.006512480921787189,-0.006631294352951449,-0.008044854686912057,-0.014189091161824763,-0.00032084818535744086,-0.00032928222107442284
-120,-1.7818346862971901e-09,-1.8932820147996137e-09,-1.745359390416453e-09,0.0005811800156152458,-1.8278492657115112e-08,-8.779680364146003e-05,0.00020958491040801164,-9.772756055361154e-07,4.9916794523596764e-05,-0.0038505222180445497,-0.003774996897378677,-0.0034159072124396992,-0.0008668533992022276,-0.0002456198569657825,-0.00024179956695757898
-110,-1.8086263800124695e-09,-1.0678715223646928e-09,-7.655583568100904e-10,0.0006320801040260449,-1.0413768409962906e-08,3.382623362813142e-05,-0.009423169834917644,6.834828188612428e-05,0.0005294703878462315,-0.002145339473570651,-0.0021421572922307435,-0.0018564546299062264,0.006048157578334212,-0.00018802906484960603,-0.00018491092954048272
-100,-6.75869135950261e-10,-5.742089753651925e-10,-5.986644559002947e-10,-0.0002144633823490949,-5.7156907980601634e-09,-9.86502228572661e-07,-0.0013491843374140444,0.00017004132799546882,0.00016992120072245598,-0.0012261360749518113,-0.001212170053601824,-0.001254379923041332,0.0014006292913109064,-0.0001439405185171864,-0.00015536237399205177
-90,-2.0530212085529693e-10,-2.585428614708093e-10,-2.33976209219779e-10,9.342309215298883e-05,-3.2385218341099228e-09,-2.974595451288309e-06,-0.002713434075758414,0.0003307281760536681,0.00039640592876821756,-0.0006878489933553333,-0.0006849811329624263,-0.0006720957055793527,0.0029643047600984573,-0.00011018938871120163,-0.0001140633025024651
-80,-5.7952881707426e-11,-2.227472036464732e-11,-2.6195251475561462e-11,-2.183558541446473e-05,-1.7994372842823155e-09,4.9570046352087616e-06,0.001398515561959357,0.000594865129655868,0.0005999067798256874,-0.0003939474701426804,-0.00038668828450835405,-0.0004015644020451595,-0.0009557176381349564,-8.435160287800763e-05,-8.675364711763223e-05
-70,2.171576906219172e-10,2.068701639966491e-10,2.1710939438048787e-10,2.6081970815994282e-05,-9.781989545546565e-10,-1.5478499082455244e-07,-0.0003791296230701846,0.0010374984628682149,0.0010763255413621664,-0.00021941184581783513,-0.00021817529996784592,-0.00022850998355600512,0.0013468950055539608,-6.457186085943398e-05,-5.57085558937076e-05
-60,8.567310344078788e-10,4.972463788209667e-10,5.038502536701913e-10,-4.968171032260216e-05,-4.770981589567848e-10,5.654126321141817e-06,0.014449070657065022,0.0017859363019280742,0.0017993329092860222,-0.0001224487819220521,-0.00012303404513018515,-0.00011493242648068061,-0.011516932863742113,-4.942952850763491e-05,-6.28491242458673e-05
-50,4.35444701474909e-10,9.339074231404214e-10,9.33883186477408e-10,-8.876135012769737e-06,-1.3157884770556295e-10,1.623139035400456e-05,-0.02447452500291547,0.003056650391244869,0.0031292294152081013,-6.86726287733308e-05,-6.93303492018333e-05,-7.207532990946656e-05,0.025949914008378983,-3.78374942298356e-05,-0.00013072197504654381
-40,2.72541182572715e-10,1.6437808531485552e-09,1.6408278684199252e-09,3.7548202271864284e-06,1.8160998948043877e-10,-7.755508689721857e-05,-0.061911383529150044,0.0052179978313876075,0.00525671208743006,-3.637430568412259e-05,-3.908868689931808e-05,-3.07885358559827e-05,0.06281094066798687,-2.8962910068611387e-05,2.6988953503503943e-05
-30,2.865894263395533e-09,2.8328318054887667e-09,2.8421226706439657e-09,-3.2258927234352086e-05,5.793292023348406e-10,7.907523008832129e-06,0.009830228722421452,0.008896966006359867,0.009277565986849368,-2.2582453153036086e-05,-2.2167421643593128e-05,8.593799150333186e-06,-0.0008032280020415783,-2.2168285058172097e-05,-0.00043177280578110544
-20,4.294565680364118e-09,4.846664160743662e-09,4.920229357066935e-09,0.00026743863531919487,1.2135359779206377e-09,-1.2594984333258452e-05,0.00905564779532142,0.015160964457813784,0.014490238507278264,-9.057342069240804e-06,-1.1388929690926603e-05,-8.778424120337007e-05,0.0039605433121323586,-1.6966027327733836e-05,0.0010168514204990098
-10,-4.706536586169304e-09,8.268143462853892e-09,8.177677145741836e-09,6.133029160082515e-05,2.4198175414056626e-09,-2.982602762813258e-05,-0.02030038187331229,0.025826124114150757,0.021080702892504632,-1.2186338250702589e-05,-4.969450863884069e-06,-8.788933939894715e-05,0.005537101067602634,-1.2982360172090098e-05,0.00461920706734259
0,3.5051506891244285e-08,1.4037468113709154e-08,1.417970301605169e-08,-0.0008432544979086742,4.544519376030793e-09,6.983179427155761e-06,0.04971984382427763,0.0439804219261207,-0.021937487181276083,-9.658314847543759e-05,-0.00010544830257993028,0.0022760295543646837,0.06108912266790867,-9.933836754104068e-06,0.06276921969123656
10,2.6128199774425308e-08,2.3741865404960776e-08,2.4911954323712825e-08,0.0004286122587302543,8.564476364581004e-09,-4.079282790336869e-05,0.08443060043464357,0.07486937640229743,0.07417322025867179,-0.0005320824746785913,-0.0005073963545872338,0.005903691668190955,-0.002726706676185131,-7.591206017597969e-06,-0.005214902090536294
20,-1.3047583677294096e-07,4.1600704086277063e-08,3.98408573454344e-08,-0.00040322445713059096,1.4824676127638139e-08,0.00022216833579224993,-0.07219953928506584,0.12738717212860837,0.37044096301542595,0.0016445090962553532,0.0016389776835999625,-0.009983788903678941,-0.3368903426453471,-5.760496899320617e-06,-0.23145128701554846
30,6.06315066146918e-08,7.654054463149206e-08,6.663483571781709e-08,8.137575434830069e-05,2.9020147904205466e-08,-1.0019357289947628e-05,0.2697477532819903,0.21656546733308282,0.3192114072153345,0.014887590977609277,0.014886322201154021,-0.04720952055137947,-0.10296429134905338,-4.405427544914168e-06,-0.04040820310196494
40,-2.1819753614964162e-07,1.1932810254497697e-07,1.1800366070146466e-07,-3.994863814682503e-05,5.632708124429034e-08,-0.00012675493735581078,-0.3172850871269475,0.36771519712181794,0.1992772940429859,0.003126289247449343,0.003148621503946913,-0.005207993102921026,-0.36836045421659946,-3.436886534350773e-06,0.1770258913803028
