"{'distance': [0.1, 0.105, 0.343, 0.71, 0.726, 0.832, 0.991], 'solute_3': [15.05, -11.23, 8.37, -14.32, 6.48, -17.66, 7.51], 'solute_2': [13.13, -12.15, 15.81, -15.26, 7.37, -19.46, 18.56], 'solute_1': [7.9, -7.52, 8.01, -12.0, 6.11, -6.72, 15.71]}","{'solute_3i': '79.0 nM', 'solute_1e': '161.0 uM', 'solute_2i': '263.0 mM', 'solute_3e': '11.0 nM', 'solute_1i': '130.0 mM', 'solute_2e': '49.0 mM'}"
voltage,current,solute_3,solute_2,solute_1
-150,-1.3465112345983932e-10,1.2702386198071747e-08,-0.00019290989110990362,-0.00021587389476966645
-140,-7.454061190948469e-11,8.730653320477178e-09,-0.00017719823975129664,-9.60358979442133e-05
-130,-4.2164546243019984e-11,4.7278782476536355e-09,-0.00016063523894852179,-3.418963456005425e-05
-120,-2.8124981948769036e-11,2.2537987359363937e-09,-0.00014276386646747997,-1.0933357468240201e-05
-110,-2.155557290236301e-11,1.0154257239582322e-09,-0.00012451491644739063,-3.346745648547672e-06
-100,-1.7535333677614305e-11,4.3144005017933723e-10,-0.00010644508161456479,-1.0047871819747478e-06
-90,-1.434836127861281e-11,1.7161533673859951e-10,-8.86736718108358e-05,-2.972670563750751e-07
-80,-1.1427101698677547e-11,6.181665237814371e-11,-7.107484281127649e-05,-8.514728118760861e-08
-70,-8.562413815985514e-12,1.2836350132069108e-11,-5.338506251567733e-05,-2.1075441858711685e-08
-60,-5.64772709971407e-12,-1.3019611567744809e-12,-3.524543803412104e-05,-2.929084631092538e-09
-50,-2.5967197821274027e-12,-7.867614192076689e-12,-1.6210675952564778e-05,4.822427492057191e-10
-40,6.822583306580842e-13,-6.398082300065056e-12,4.255407249555712e-06,1.1300754308024574e-09
-30,4.2954693867524886e-12,-1.2101766910746987e-12,2.6794413652227056e-05,6.251588714149131e-09
-20,8.36054155363279e-12,-2.798269035496629e-13,5.217778540833479e-05,3.4547982643087782e-09
-10,1.3028016755116378e-11,7.241284405343067e-12,8.131300982443753e-05,3.4777802491135767e-09
0,1.8470147755543117e-11,2.4127920775845615e-11,0.00011528529664409944,2.994939378854304e-09
10,2.4894786402878063e-11,3.984775001979539e-11,0.00015538495941720467,4.389347965714878e-09
20,3.254651796622215e-11,-2.3369410826050426e-11,0.00020315086182818437,3.64886626431438e-09
30,4.17234847211066e-11,1.3022282565171788e-10,0.0002604186849346894,9.135524079676317e-09
40,5.276998449560148e-11,-2.0999296630538106e-11,0.0003293861944807988,4.8262668848094836e-09
50,6.611525937136215e-11,4.8782362461795463e-11,0.0004126818838156552,7.519286641114375e-09
60,8.226178220785907e-11,2.780252104291054e-10,0.0005134645331538508,9.819927119153254e-09
70,1.0181882357106577e-10,2.6707758212108987e-09,0.0006355298834220778,1.3542215069421433e-08
80,1.2551692644925662e-10,2.7872475703249715e-10,0.0007834439671636185,1.9055884184067894e-08
90,1.54239631966165e-10,6.247270537941721e-10,0.0009627052632250541,2.9439692545430427e-08
100,1.8905206455238474e-10,2.2984562602438568e-10,0.0011799458317449053,5.1405504747446124e-08
"{'distance': [0.1, 0.105, 0.343, 0.71, 0.726, 0.832, 0.991], 'solute_3': [15.05, -11.23, 8.37, -14.32, 6.48, -17.66, 7.51], 'solute_2': [13.13, -12.15, 15.81, -15.26, 7.37, -19.46, 18.56], 'solute_1': [7.9, -7.52, 8.01, -12.0, 6.11, -6.72, 15.71]}","{'solute_3i': '79.0 nM', 'solute_1e': '161.0 uM', 'solute_2i': '263.0 mM', 'solute_3e': '11.0 nM', 'solute_1i': '130.0 mM', 'solute_2e': '49.0 mM'}"
voltage,largest element,smallest element,element difference,element ratio difference,condition number,transport error solute_3,transport error solute_2,transport error solute_1,current errors,smallest eigenvalue,second smallest eigenvalue,sum absolute errors,sum squared errors
-150,28128418031.920486,0.00048727100418469161,28128418031.919998,57726435167192.711,2.7711068055720498e+23,3.637728930113236e-09,3.956943820347669e-09,1.049401072983347e-09,5.339882206488761e-16,4.7174337214699969e-10,-0.00075982000747568221,5.8199851110733399e-09,1.5114543909775516e-08
-140,28234224961.731781,0.00045724549967670724,28234224961.731323,61748502678964.852,5.7097104271185209e+23,8.246304972352766e-10,7.744181689146867e-10,5.471325906225566e-09,2.694949217764912e-15,-5.0778879081313607e-10,-0.0007069669350456408,5.0128158937843391e-09,1.3430093586513073e-08
-130,28341875672.309845,0.00042907015845202232,28341875672.309418,66054175789246.766,1.6630180270321748e+23,8.727702681337555e-11,1.5838416912630077e-09,1.7547394214750822e-09,6.16427604296983e-16,1.4970096495374171e-09,-0.00065951779244757672,6.1719980046585968e-09,1.7456044082851993e-08
-120,28451358305.821007,0.00040263097396084,28451358305.820602,70663610466760.047,4.6733274930147952e+23,3.500787565448326e-10,6.692148905342032e-10,5.416677554409555e-09,2.4934104845512876e-15,-5.7011685430588518e-10,-0.00061831623904797992,9.4747347259057254e-09,2.0821816861149648e-08
-110,28562661369.580986,0.00037782096470542954,28562661369.580608,75598402518108.125,6.6562113867297898e+22,2.5915079581844414e-10,2.792142009136814e-10,3.1457663800249502e-09,1.5029397275218842e-15,1.9753201407720842e-10,-0.00058439062127829916,2.9883259580557355e-09,8.1779000488440342e-09
-100,28675773729.951336,0.0003545397413583616,28675773729.950981,80881690780516.609,4.3103664294724951e+22,2.1641154775020249e-10,4.727859161026554e-10,2.0968823500472356e-09,9.650239650456941e-16,-2.9568034238454278e-10,-0.00055900069072292149,3.511249342175431e-09,8.818334837048135e-09
-90,28790684606.35704,0.00033269310055479719,28790684606.356709,86538267725858.609,6.7513504703881385e+22,7.86633875911018e-11,1.3490163614546073e-09,2.916135663890221e-09,1.2004857664058518e-15,-1.2658087397819016e-09,-0.00054383979752182295,2.6400663096762811e-09,7.0435861413446167e-09
-80,28907383565.422935,0.00031219264371518379,28907383565.422623,92594698008949.266,9.2694055398069728e+22,8.105698094340726e-11,9.452259221642487e-10,5.061379355561502e-09,2.272559846848492e-15,-9.3511493316155971e-10,-0.00054123727738061551,5.5359639830822722e-09,1.1743812807184822e-08
-70,29025860515.226772,0.00029295541935599152,29025860515.226479,99079445531455.859,4.1347520586962072e+23,3.668814991504322e-10,1.7044816235246407e-10,1.3051928053967043e-09,6.72413783178481e-16,-6.0949293692948059e-12,-0.00055439523891016233,4.2271784885887889e-09,9.7666394721706828e-09
-60,29146105699.666702,0.00027490358744116294,29146105699.666428,106023009633894.95,9.1945504585805893e+22,1.0852322721066681e-11,1.4238169530108452e-10,2.8757075540286614e-10,1.214719118559298e-16,3.1450214755384566e-11,-0.00058769652118396466,7.2650081144680518e-10,1.8915327615662114e-09
-50,29268109692.941101,0.00025796410441613341,29268109692.940842,113458071072273.7,4.1769996853811291e+23,4.604187360606481e-11,1.7229976396240234e-09,1.558296661846592e-09,5.369497946477399e-16,-1.7559105196248585e-09,-0.00064711730502219436,3.0362907874123045e-09,8.4068918188927579e-09
-40,29391863394.138493,0.00024206842764996781,29391863394.138252,121419648483193.67,3.1773307289695773e+23,4.7737739936484053e-11,2.2116435367662036e-09,3.2658825288231497e-09,1.2247911200704316e-15,-2.2114367190422235e-09,-0.00074078606155803688,3.4457361754959677e-09,8.1797681801952944e-09
-30,29517358021.935715,0.00022715223808969203,29517358021.935486,129945266091900.27,1.5697263274398525e+23,1.5026130762144093e-11,3.618184963661078e-09,2.7619134067465023e-09,9.343263306110432e-16,2.967991664954647e-09,-0.0008797466796839177,4.7306487704565033e-09,1.0442422205562764e-08
-20,29644585109.402058,0.00021315518000458657,29644585109.401844,139075133472075.05,5.9244467841161052e+23,1.1002714140640532e-10,2.6545509161039066e-10,4.628141792531713e-10,1.994009864859819e-16,-1.0072031211009522e-11,-0.0010790165702477704,5.1976638103649728e-10,1.6713509272744707e-09
-10,29773536498.907665,0.00020002061676736575,29773536498.907467,148852338224393.22,6.727213300227599e+23,1.2775009960529022e-10,5.169103913351195e-10,2.132962791633053e-09,1.0874725127875574e-15,-3.6539973826087073e-10,-0.0013590776273064793,3.1239080120771736e-09,8.298033612802152e-09
0,29904204337.133942,0.00018769540168405249,29904204337.133755,159323052503287.56,6.3721707414594713e+23,1.1889918526947816e-10,6.086837208850622e-10,3.714564572985559e-09,1.687759710770892e-15,-4.9704941385920765e-10,-0.0017479515152787107,2.5931825478722879e-09,7.7283253859706968e-09
10,30036581070.184334,0.00017612966294525332,30036581070.184158,170536754388275.03,3.6069383618798114e+23,1.1416932584171765e-10,7.772154394950024e-10,1.3783520686578773e-09,6.620975613012307e-16,7.0734396882975281e-10,-0.0022838862483869392,1.7207355356828459e-09,5.3982430936343037e-09
20,30170659438.793446,0.00016527660182867599,30170659438.793282,182546465167937.31,7.1379894838290955e+23,2.3035183766994974e-10,7.963797177593622e-10,2.5070344137809696e-09,1.204744303807262e-15,7.7919443856392564e-10,-0.0030186125038809903,3.0944951930766647e-09,9.8591533198846163e-09
30,30306432473.632702,0.0001550923033363522,30306432473.632545,195409003681546.03,4.1853322216042373e+23,2.6641582602240796e-10,2.5797149866041598e-09,4.377199234009363e-09,1.7270668070500377e-15,2.3687904216587989e-09,-0.0040216999845502244,1.280633709699352e-08,3.5711699999734335e-08
40,30443893490.710781,0.00014553555850034249,30443893490.710636,209185258945765.75,5.0157816278785852e+23,1.1730125897797475e-10,3.245492183269645e-09,1.9379390757065518e-09,4.302373337140433e-16,-2.9766652054480588e-09,-0.0053870714176604256,4.318507479362698e-09,1.1073927434447605e-08
50,30583036086.866924,0.00013656769763791413,30583036086.866787,223940482382243.91,2.0643327151833255e+24,2.973493369859414e-11,1.2930213500925679e-09,1.6622752003435913e-09,1.001381004485166e-15,-1.269830563096069e-09,-0.0072422390414687539,3.8275529076804292e-09,1.0466616670106908e-08
60,30723854135.355637,0.00012815243388148917,30723854135.355507,239744601056644.53,6.9229598351666465e+23,2.263901523188133e-10,2.4663532084689965e-09,2.0077797457105414e-09,1.286395794193137e-15,2.2533468741720738e-09,-0.0097606685660298013,3.492381199259181e-09,8.6863352548996813e-09
70,30866341781.520748,0.00012025571635023346,30866341781.520626,256672553441247.06,5.846264552601818e+23,3.519004609219932e-09,4.61617713086622e-09,1.0514027319522747e-09,6.828138543123238e-16,9.5958147957788775e-10,-0.013178378438568745,4.5297663523581073e-09,1.252922611978482e-08
80,31010493438.557491,0.00011284559236917213,31010493438.557377,274804649322122.16,1.3344184863938661e+24,2.6323649562351294e-11,4.157267055019016e-09,5.457406188184103e-09,2.4084702392218773e-15,-4.1679816402061117e-09,-0.017816490972396664,7.702089926323002e-09,1.9439101670881926e-08
90,31156303783.36071,0.00010589207817832466,31156303783.360603,294226955588621.0,2.7307990193676025e+24,2.660145281026253e-10,8.16551314628336e-10,3.0710549207835225e-10,6.903927273354599e-17,-7.6447577185795913e-10,-0.024112039900028397,1.7600296243071021e-09,6.4538532251481871e-09
100,31303767752.457752,9.9367037608707692e-05,31303767752.457653,315031709768054.44,8.9612849386571273e+23,5.197319193305819e-10,1.0192629355332619e-08,4.452210081943436e-09,3.6893303346327406e-15,-9.7325926191919296e-09,-0.032659955208850754,1.7853944686169824e-08,4.6322902019472896e-08
"{'distance': [0.1, 0.105, 0.343, 0.71, 0.726, 0.832, 0.991], 'solute_3': [15.05, -11.23, 8.37, -14.32, 6.48, -17.66, 7.51], 'solute_2': [13.13, -12.15, 15.81, -15.26, 7.37, -19.46, 18.56], 'solute_1': [7.9, -7.52, 8.01, -12.0, 6.11, -6.72, 15.71]}","{'solute_3i': '79.0 nM', 'solute_1e': '161.0 uM', 'solute_2i': '263.0 mM', 'solute_3e': '11.0 nM', 'solute_1i': '130.0 mM', 'solute_2e': '49.0 mM'}"
voltage,"current, barrier 0","current, barrier 1","current, barrier 2","current, barrier 3",solute_3 transport over barrier 0,solute_3 transport over barrier 1,solute_3 transport over barrier 2,solute_3 transport over barrier 3,solute_2 transport over barrier 0,solute_2 transport over barrier 1,solute_2 transport over barrier 2,solute_2 transport over barrier 3,solute_1 transport over barrier 0,solute_1 transport over barrier 1,solute_1 transport over barrier 2,solute_1 transport over barrier 3
-150,-1.3465132271858904e-10,-1.3465112345983932e-10,-1.3465130041993822e-10,-1.3465165744805997e-10,1.2757333609196502e-08,1.2702386198071747e-08,1.270027869440889e-08,1.6338007624522126e-08,-0.000192909754844095,-0.00019290989110990362,-0.00019291007023158758,-0.00019291371178791535,-0.00021587437311154645,-0.00021587389476966645,-0.00021587420256655165,-0.00021587494417073944
-140,-7.453818278380275e-11,-7.454061190948469e-11,-7.454058000529442e-11,-7.454087773302051e-11,8.744555758935979e-09,8.730653320477178e-09,8.723357458814708e-09,7.919925261700702e-09,-0.00017719833863338863,-0.00017719823975129664,-0.0001771986968479469,-0.000177197922429778,-9.603081525710877e-05,-9.60358979442133e-05,-9.603567676262637e-05,-9.6036286583015e-05
-130,-4.216462831951989e-11,-4.2164546243019984e-11,-4.216511377586268e-11,-4.216516267062428e-11,4.760482211762418e-09,4.7278782476536355e-09,4.724156681075363e-09,4.6732051849490426e-09,-0.0001606353517615844,-0.00016063523894852179,-0.0001606338287715124,-0.00016063376791989313,-3.418977860292216e-05,-3.418963456005425e-05,-3.419128426251916e-05,-3.4191389299475725e-05
-120,-2.8127030088328665e-11,-2.8124981948769036e-11,-2.8124536677844113e-11,-2.812475074610408e-11,2.2707088792032657e-09,2.2537987359363937e-09,2.2542511848630073e-09,1.920630122658433e-09,-0.0001427637457709352,-0.00014276386646747997,-0.00014276441498582574,-0.00014276409288741182,-1.0937664967514138e-05,-1.0933357468240201e-05,-1.0932248289959728e-05,-1.0932689867845097e-05
-110,-2.1557075842090533e-11,-2.155557290236301e-11,-2.1555623143525744e-11,-2.155611022893182e-11,1.03086489540426e-09,1.0154257239582322e-09,1.015167509979618e-09,1.2743183057980622e-09,-0.0001245148762336612,-0.00012451491644739063,-0.0001245147073314015,-0.00012451498654560242,-3.349891414927697e-06,-3.346745648547672e-06,-3.346919806222065e-06,-3.347926612815022e-06
-100,-1.75355371955345e-11,-1.7535333677614305e-11,-1.7535193203655876e-11,-1.7534572171569453e-11,4.4184278786174765e-10,4.3144005017933723e-10,4.414149903507433e-10,6.478515979295397e-10,-0.00010644504456536197,-0.00010644508161456479,-0.00010644537027967778,-0.00010644551735127807,-1.0052264656223997e-06,-1.0047871819747478e-06,-1.0044019965313108e-06,-1.0031295832723525e-06
-90,-1.4349161734412389e-11,-1.434836127861281e-11,-1.4347961248645983e-11,-1.4348191353741451e-11,1.8972058849349812e-10,1.7161533673859951e-10,1.694112164739588e-10,2.480746040650606e-10,-8.867373779253285e-05,-8.86736718108358e-05,-8.867497222119865e-05,-8.867502082719725e-05,-2.9891663189118844e-07,-2.972670563750751e-07,-2.960004962272982e-07,-2.9648930248860755e-07
-80,-1.1427632795202278e-11,-1.1427101698677547e-11,-1.1426671558825346e-11,-1.142536023535543e-11,3.390498169271791e-11,6.181665237814371e-11,5.514808290164008e-11,-1.924032856526355e-11,-7.10748321068877e-05,-7.107484281127649e-05,-7.107574949084416e-05,-7.107577733280986e-05,-8.624661518297216e-08,-8.514728118760861e-08,-8.394782587389099e-08,-8.118523582741066e-08
-70,-8.562374223286648e-12,-8.562413815985514e-12,-8.562539988896876e-12,-8.563046637069826e-12,1.0834181540461413e-11,1.2836350132069108e-11,1.595961009937772e-11,-3.509218890510545e-10,-5.338497206253123e-05,-5.338506251567733e-05,-5.338505900805553e-05,-5.338489206751498e-05,-2.102254370583978e-08,-2.1075441858711685e-08,-2.1340184219557912e-08,-2.2327736511236485e-08
-60,-5.647848571625926e-12,-5.64772709971407e-12,-5.647753572361917e-12,-5.647796565474882e-12,-1.4680761904330522e-12,-1.3019611567744809e-12,-4.676075381294015e-12,-1.2154283877841162e-11,-3.5245333407374346e-05,-3.524543803412104e-05,-3.524539847428755e-05,-3.524547578906965e-05,-3.216655386495404e-09,-2.929084631092538e-09,-2.9962290340723166e-09,-3.057421867763699e-09
-50,-2.596182832332755e-12,-2.5967197821274027e-12,-2.596258275564632e-12,-2.596235992680311e-12,-8.129218028981103e-12,-7.867614192076689e-12,-9.67553780409598e-12,3.636633580196883e-11,-1.6210831034868534e-05,-1.6210675952564778e-05,-1.62123989502044e-05,-1.6212375167342437e-05,1.6512728961970424e-09,4.822427492057191e-10,2.017449603141058e-09,2.040539411052311e-09
-40,6.817916237121877e-13,6.822583306580842e-13,6.829683799742078e-13,6.830164148322582e-13,2.874351257836226e-13,-6.398082300065056e-12,-5.021436468808717e-12,-4.745030481070043e-11,4.255303423406076e-06,4.255407249555712e-06,4.253195606018946e-06,4.253198901325275e-06,1.9136336959491018e-10,1.1300754308024574e-09,3.3442536914168462e-09,3.45724589841806e-09
-30,4.2945350604218775e-12,4.2954693867524886e-12,4.2946234752734055e-12,4.294668642652036e-12,-1.764839488470945e-12,-1.2101766910746987e-12,2.679905898085954e-12,-1.234622486405814e-11,2.679409394090726e-05,2.6794413652227056e-05,2.6797363718095933e-05,2.679771212587092e-05,4.414260956764338e-09,6.251588714149131e-09,3.506821293200579e-09,3.4896753074026288e-09
-20,8.360728730332533e-12,8.36054155363279e-12,8.360529329346047e-12,8.360534820347476e-12,-1.5175846825943654e-13,-2.798269035496629e-13,2.218049720106087e-12,-1.0780909168629923e-10,5.217761534481724e-05,5.217778540833479e-05,5.217775671725663e-05,5.217788079990885e-05,3.9009080410323804e-09,3.4547982643087782e-09,3.438093861779209e-09,3.4448339961828944e-09
-10,1.3029011893690849e-11,1.3028016755116378e-11,1.3027974254083789e-11,1.3027924421178061e-11,7.410550275364133e-12,7.241284405343067e-12,8.987381431843494e-12,1.349913840106333e-10,8.131305457936833e-05,8.131300982443753e-05,8.131264702942965e-05,8.131253766897699e-05,5.533422609005356e-09,3.4777802491135767e-09,3.5096966097657495e-09,3.4004598173723033e-09
0,1.8468721947393253e-11,1.8470147755543117e-11,1.8470409707104023e-11,1.84703693943002e-11,2.415883663198302e-11,2.4127920775845615e-11,2.4477869575012128e-11,-9.442131569446603e-11,0.00011528537984872855,0.00011528529664409944,0.00011528477116500767,0.00011528486264481561,4.689582056016661e-13,2.994939378854304e-09,3.7150335311911607e-09,3.6402931658657822e-09
10,2.4894124305316762e-11,2.4894786402878063e-11,2.4894707302148638e-11,2.4894677006370944e-11,3.991807823213443e-11,3.984775001979539e-11,3.998814527838146e-11,-7.418118056333619e-11,0.00015538496145950376,0.00015538495941720467,0.0001553856583203668,0.00015538573663264417,3.0109958970570005e-09,4.389347965714878e-09,3.9917459945947705e-09,3.940660937319651e-09
20,3.254772271052596e-11,3.254651796622215e-11,3.254694821606294e-11,3.254694474937005e-11,-2.3802423521288312e-11,-2.3369410826050426e-11,-2.1528422242956248e-11,2.0654941414866143e-10,0.00020315086140954008,0.00020315086182818437,0.00020315165778925784,0.00020315137777594003,6.1559006780953496e-09,3.64886626431438e-09,4.2781670351113195e-09,4.288265601989916e-09
30,4.172312778532748e-11,4.17234847211066e-11,4.172175765429955e-11,4.1721865550516534e-11,1.3014168525915412e-10,1.3022282565171788e-10,1.2939095865298235e-10,-1.3619300037069008e-10,0.00026041868997594975,0.0002604186849346894,0.000260421036672579,0.000260421264649676,8.391182859668334e-09,9.135524079676317e-09,4.758324845666954e-09,4.995363622750659e-09
40,5.276959671762153e-11,5.276998449560148e-11,5.277001643828011e-11,5.2770026954955245e-11,-2.1191843289381244e-11,-2.0999296630538106e-11,-1.9485495438246705e-11,9.61094156885935e-11,0.0003293863254896223,0.0003293861944807988,0.0003293831987861459,0.00032938307999743905,3.975799245381495e-09,4.8262668848094836e-09,5.890791335641536e-09,5.913738321088047e-09
50,6.611596595805844e-11,6.611525937136215e-11,6.611496457705395e-11,6.611498531724636e-11,4.9001276346384646e-11,4.8782362461795463e-11,4.671322493661219e-11,7.644815863520633e-11,0.0004126818690224354,0.0004126818838156552,0.0004126806073183321,0.0004126805907943051,8.994362588055083e-09,7.519286641114375e-09,7.332087387711491e-09,7.3708385428181145e-09
