"{'distance': [0.093, 0.124, 0.386, 0.4, 0.431, 0.462, 0.533, 0.573, 0.593, 0.631, 0.985], 'solute_1': [9.66, -2.8, 6.73, -14.7, 19.44, -19.72, 3.05, -7.36, 15.43, -2.37, 18.3]}","{'solute_1i': '191.0 mM', 'solute_1e': '209.0 mM'}"
voltage,current,solute_1
-150,-0.000000022389357222661643796499026054928611204023578651012926631239317992577773475408909,-0.069879392080716744469538109357165477921147498193809093412004271102980833112483573
-140,-0.000000017234734013329229911506979383070781741880098229681065703416728802532092893154819,-0.05379130466082781143113998224678397952239062504173924892745093657581040305551976
-130,-0.000000013364511250346213869781589374674659458471880294305129030285064746318897696195271,-0.041711957710194177731628473555092379865096528763346688223283498937103438632743092
-120,-0.000000010432207253948461928709701663884200479613388729385065110987083366184766347253856,-0.032559947733921543245772392983012800381968158918928198275794927422651028185349236
-110,-0.000000008180789932894353165658591965231997734686891156523452306894124426885926954954425,-0.025533052225013587949779825660378291389138563016388659468888831126929030458770852
-100,-0.0000000064264396131601077781877051454200334323116332256660556826603815404640776951976019,-0.020057551851311198823267935070162800669170189998456471386214609973590770098453679
-90,-0.0000000050400256529292977421706266756535332299715529722682181177881978517136063248652105,-0.015730417143974088629493343029571201153570588729434250160130655668901245995071701
-80,-0.0000000039312763906391887816721292859770328509566009659077712130195011652814906768637162,-0.01226990134406738133694079367254959931655378060008992000177030140740254536223147
-70,-0.0000000030367933240619542911050533093525272282758979778693051500186870278398621026877315,-0.0094781314733519177421418991584684140694868137312842376906166668162813512435199592
-60,-0.0000000023114264885962497309695704045517282281868150573432625002960830038823383611967168,-0.0072141900393141381017081669516209729065333679103174621907458277200842515856390327
-50,-0.0000000017220998917613573596665729400201334438869836713417701772017954829440550034054724,-0.0053748436072451855390143068352375394583906307800665962887978422095954015809815518
-40,-0.0000000012432874982398802624506094733790811706927371885385544706947129288921113520474264,-0.00388042290337041300026656806764557011366202177405541223842507235169564375061962
-30,-0.00000000085364720656619889906119523364081759354038818527761907141102392122277304716852941,-0.0026643171241142289082517850731466269018654684144161511682786718357642289688182002
-20,-0.00000000053363211290151925903486480296316251882764526131111382531162987702621434509016535,-0.0016655184547488117540706102152415108827927590360193837599851395848766769406021038
-10,-0.00000000026407606803869758948792598802440729352640076552031507510954238838788123058898777,-0.00082420745330429963431375912925657666784745797682125429126046109691063666606935998
0,-0.000000000025724754421235133550897359641195500731702665053737762025477263074611696853089602,-0.000080289495696738872818373178416374109780340894632715435321569779445852681212883519
10,0.00000000020048033411363790179241049858555984086015948293650627266572867960157250838704068,0.00062571889548576127317270037264944671155274157201149455809613821591778761612607308
20,0.00000000043269048685666215868011255412835459619461738981093797482149383909782367355788176,0.0013504696843216672301746526627527962517121480749302761723273714845230307848360267
30,0.00000000068731694359929806396733501460154360565112385329539427387072722414652433541194233,0.0021451839687868230296623204915698565482801317889122197838825276864659769990086376
40,0.00000000097824621838511232795404303155080668316383473079431996157794852516199805530587584,0.0030532029287924855723903197982043800057193436940611856346850803079623176169605557
50,0.0000000013161533211531712848975843804331554661004717575259418889381359065774888673547563,0.0041078443231996608970504564829219290917299051511253014682983008368438864313423016
60,0.0000000017079501268169970263889804202968979930228413588067391793000749651871551935304778,0.0053306807953089797525202031704992510929384129323550061364742505762955685267119082
70,0.0000000021564789332484009044487535561572526843335923348699244808453358072164811194997999,0.0067305834371048720768899779784326586891383124505086065982358903857453144554568167
80,0.0000000026606211757794780119550765731630502298183798282841528366924626554254214635531136,0.0083040610979384461498777627501503794784972356241018331626719707213663421804079382
90,0.0000000032159489458270969907103999161740655429024921653389871249087379509854556941392574,0.0100372938384116640238514330562277082646893807033014098516947391393737947245697
100,0.0000000038158918243717776807411897464867242375482982546917453164460542486353415806545057,0.011909774732745873513088149355488007864903838491835107833648328625729035839713836
"{'distance': [0.093, 0.124, 0.386, 0.4, 0.431, 0.462, 0.533, 0.573, 0.593, 0.631, 0.985], 'solute_1': [9.66, -2.8, 6.73, -14.7, 19.44, -19.72, 3.05, -7.36, 15.43, -2.37, 18.3]}","{'solute_1i': '191.0 mM', 'solute_1e': '209.0 mM'}"
voltage,largest element,smallest element,element difference,element ratio difference,condition number,transport error solute_1,current errors,smallest eigenvalue,second smallest eigenvalue,sum absolute errors,sum squared errors
-150,2555684555425.6444233261341818059378144346327239290710444685830840148818323506587,0.000041380942347319118550387236043923522123848701476110652728053936804627708040846567,2555684555425.6443819451918344868192640473966800055489206198816079042291042967219,61759940940330362.083265745908854693051963069467442251152054417241635205720807614,5111369110851.2888466522683636118756288692654478581420889371661680297636647013175,8.4130456621019136693370831901552336285264849007672144377815727546036402978378693e-73,2.6955398304356601268670310042289523587869531954149379458680323888274698573568382e-79,232515394069.24071850644102960422961781560516514119947742886619644356190852618307,5.2622738868730244765727203473252103455432465283118454499985604155704936157360232e-74,8.4801849198652754271569376706649506932204759095363252884693944004127102845317268e-74,2.2469296704182113477102237215959512924508891518916435401420062129012256354641945e-73
-140,2633961696158.5607518157020201794593404295436645988716974502733170614028454617066,0.000042420021037591443316163708180844071391438481565661115718164706926335990984871941,2633961696158.5607093956809825880160242658354837548003060117917514002871272969997,62092418431957332.69361793357978447423464154586061361224943777631722677171620229,5267923392317.1215036314040403589186808590873291977433949005466341228056909234132,3.0893302155283847313932057883609589345796156503661465770506792053487086598272634e-73,9.898214010869872400553343026106757886969991068017459189141343876636815589383212e-80,236769995693.76913251920730044102914986105572825020392793698076331473463883948446,-1.0351706330027195878777600953365038475451286697767482745012085890791734184192739e-73,1.2806724925522714106955215260667613874085888397723313500441263193271332075928731e-73,3.1591863953124396383313133352187514115508695284737951234134392950750752169876745e-73
-130,2715331766652.2224617756378175475456458187136730369928083792594458654587811035388,0.000043485191074830106506563111659021693058010262641995835316260500316389203310792797,2715331766652.2224182904467427174391392556020140152997503689968038696234648430385,62442677599820827.426653424493801399445053863606637589533281111430478493912028075,5430663533304.4449235512756350950912916374273460739856167585188917309175622070776,4.4502498318871774264703755282708362532984627065780273727857889573904881752952337e-73,1.4258600461374814980690004338699414113840932558454517486338065685804402001202986e-79,241558652524.42223490895303866690931789614872242121991541213250788242620264931677,2.9531175963944943370462722702224181949066215214931322720743592523191417594543533e-73,2.63874404075519623554130653624797123391033102715707924126767397680787159705144e-73,4.7245946048595783362133068706687647478557113316473723200200791206516498591935726e-73
-120,2799744151634.3730981588335696756153983327268477602263880344329838392553229419763,0.000044577107614792699995256570352310145689641875217634668633334833124014991975717226,2799744151634.3730535817259548829154030761564954500806983925577662045866896071431,62806770143724878.860280159804144305695119134326016621206734595573386540750532177,5599488303268.7461963176671393512307966654536955204527760688659676785106458839526,7.7497114037746504693255721497070564582799466778244125559780490293302367796515081e-73,2.4830075337900996049210100798268225603202096230204055381723081730993804060484286e-79,246808377298.34405467824033870201810495252138257541393241035750068058647808016918,2.5980742492342020338176007913572349086791870982294654347765451255195900431472093e-73,2.3736518552739253512439528110263919785609310588003388907920131281416445380257315e-73,4.4229061485013267015975265737576037923493184570411847362880761382502094074660937e-73
-110,2887183472551.0973496495743788071022174315460217071899594234129542874123086227694,0.000045696442264248984604275208328127861364219810914104197602693984547161977958623123,2887183472551.0973039531321145581176131563376935793285952036020401832147059287849,63181799927779297.855693583984104603965135822162220830652918918722627684175262563,5774366945102.1946992991487576142044348630920434143799188468259085748246172455389,2.9340179547476415003065767195677544525012999158557591995664355743390453020316024e-73,9.4005935267073713491701071897680844546059971073760658091203015208297194585605524e-80,252468282189.48380116326981618693088706969211854147951869195059148836035012277918,-1.9365174245879012721270382646258923315642582262500358888888844456081652410968171e-73,1.7393848947468881200537461857130885383604706291027083796151312772295771817941012e-73,3.6450595431291196881662330845399356362061504358667126935305065754331481904378711e-73
-100,2977661626807.4559851229565350251898966198281151796508723414143975312735390195662,0.000046843883494067108734075514916080986776506145560299611818386346311049440840453093,2977661626807.4559382790730409580811625443131990986640958352688372316617206332199,63565644107721855.295420238571472751450535394790640558497221603248999327839819802,5955323253614.9119702459130700503797932396562303593017446828287950625470780391324,6.2410135680245513529817010371713367540626888233635231057012295497520345524733595e-73,1.999620747223933507122252978624968817435018828206694178789851746503370053304437e-79,258506322936.52371570041730086044513585473472856149045798682509911344134294995462,-9.5531576069750411224633610619012852788583137765696542140700035096079264877434482e-74,1.9873522338325029502051964724303159868304908618488282631407496028150247186796829e-73,3.6011287537864013898561140064165880038616808997773769250087548141942773547861542e-73
-90,3071211813849.9037217125931729718218029396565092418618912782393687599991434682358,0.00004802013706267241539729047839872261326953702484323502717042214432416465971628349,3071211813849.9036736924561102994064056491781105192486217412145255249719730460915,63956748183404387.873828227118779957180003303708623591741141807292987497428239968,6142423627699.8074434251863459436436058793130184837237825564787375199982869364716,3.2429805768815311875445789347866072653799441853165050474864121197808961233826467e-73,1.0390509767867015350843320559614442419278519622111754600200438983700244922122685e-79,264906871397.88106873188206390252168961261588065397408482078229746299576353232574,1.4754003371496614527870589190058631376045915285101804254795166809362677959673306e-73,1.3790071948282933882016568778660128245386338753567730540818959448887950876607723e-73,2.7690954569799614265749233607826113803414866456757040172508355967400268718264209e-73
-80,3167884058830.7617770746809886790173285148057466322763629546793699678873080147193,0.000049225926450139366007485288705805728515628800714785401914192902273759923404814678,3167884058830.761727848754538539651321029517040826547847325878655182485393821817,64353975380016296.685872969535332291443061257762323872622318452447672214555057351,6335768117661.5235541493619773580346570296114932645527259093587399357746160294386,2.8298997121333476148465997784024349314632909994184806842445671531048441620602641e-73,9.0669986777725986995875577806018489156257845482701976876319000923941386070170705e-80,271669178091.09814470663463641586368728619720596200064438460610947462515525070576,2.3807015493521406792198831358161792108335891223378399965232569066870297840009937e-74,2.280221260580683297742859839343570820679080834699279467347233817081198112927452e-73,4.4467258350836000948993819506621457083783223749643028867052350485306718826524915e-73
-70,3267741865286.0289132996886821655607868786386594280119053951949183152231448357305,0.000050461993303183527055595390748879777660401843689508981871563234604595232349925157,3267741865286.0288628376953789820337312832479105482342449933512288062412732724959,64756495956331452.653836288022184627751901836729955296048556259886697988988448183,6535483730572.057826599377364331121573757277318856023810790389836630446289671461,5.448904606709491606765632236029763234729902685421987886416506791649356418534093e-73,1.7458290360091531728801853117650914232307675304637576055293818599334751555831877e-79,278806708151.53180642446882805491679202977665210485366991859592615806518395781477,-4.015408834813218131438434122797442062870528652883088592254716692690395787281113e-73,3.1419870959900770854503879355976391562397308944655274247697427464346739829119181e-73,5.214704624744144393544960750192843489451739086563850606834045455866039271578606e-73
-60,3370859719183.4975847736322392573077953361163848087372080634508534198518492482805,0.000051729097891327341049742689456382818619363359193310544956198961427285586365252518,3370859719183.4975330445343479299667455934269284259185887000916601093068930493191,65163705855938388.239263515578280225094056985741553880234367254580920366065968391,6741719438366.995169547264478514615590672232769617474416126901706839703698496561,3.6537901922893576321084577461135930505477574341857019283758284641589278200819596e-73,1.1706743776077647973455478238088652096675634965998530451715910493791376610510974e-79,286347307245.29662316182459164591314188410150789564584212233310319036189958533837,1.7200343175370814820010840391575790030026068477397002347767019887307157075984507e-73,1.3341922961334237730848811613975986930806218822786339916758990067036342921637732e-73,2.5134126785072765906085370513029096462501271955328805852252316306052159875176369e-73
-50,3477321235199.5424507747655113319838741279065192818578417738793140167486330600174,0.000053028019574520268252517572740248749710439084805696590046473508480738833765664116,3477321235199.5423977467459368117156216103337790331081313347945083201585865865089,65575166923080418.286472029595958682575825710020135399061721848289336357149728241,6954642470399.0849015495310226639677482558130385637156835477586280334972661200348,1.4909481393515049201266997855938609819574663029162796183104921670899056888979614e-73,4.7769978385507712254907805060799240908379505430727367464086016780088274954175617e-80,294334134750.76456448245584804871607810170624229192175489643805699419265476585872,7.0515530713549200522555007915495968804351831163173486360788307792227044531043537e-74,8.3585120992235270578005656459184843577828393506661536719625787057509087107105542e-74,2.1609515095935848102956078367903600640604443872151962715116290724417445364063708e-73
-40,3587217787690.6451666156930641499944746017144959345978707169489737556506557860874,0.000054359557282500892648097817599773010489018587660368049451340070285036519360975108,3587217787690.6451122561357816491018265038968961615873816983613133876012044460172,65990562966660162.85202050040098901411941367649769063880642320577048430259698805,7174435575381.2903332313861282999889492034289918691957414338979475113013115721749,3.4429813178595022388027768971426352970168158652898122997673998624521124941667648e-73,1.1031312142476456476219577353195521978902362068479281353370825058373242034854079e-79,302827253916.59340982039037911926798841630083879037063170209535333899798045497535,-2.6926885360102744253398559633297578955898865830033284342331038343615390182601133e-73,1.7836202074774537717279942542852926458983296210453075216847980072293499261365628e-73,2.8298591330307762006494591189213356051524515872111613292628026252473194821747049e-73
-30,3700647507706.2219545660463632258818559719032069897681010945583177188904897316234,0.0000557245300061958555593088144315727316751260056399654340576731322429443265580293,3700647507706.2218988415163570300262966630887754170364259685526777534564320584912,66409667471304957.568455253102718391408564420652807671527014747016746991457851172,7401295015412.4439091320927264517637119438064139795362021891166354377809794632468,7.0686176006592519814324751361834990449627351382874519508280510532982907049704149e-73,2.2647850792510799046399044460100889753630165058029708210637643109510916548071201e-79,311905648847.43249875515939003490299638075362261426322104626815117871549367602035,2.8914924614478801738627634249026838124357604179551231601318662832679863946476778e-73,1.8416203417009273145811358168824556919462402989631865440308246804489891587619238e-73,2.6594540543019912628810180738770061981240878750692797600190894394308177930076578e-73
-20,3817714556681.5955293705472937567132340566525901238114899654197872605142697565258,0.000057123777301457849552241755048698556947315448543484007942124992800188414192309366,3817714556681.595472246769992298863681814897541425254542649971243776506327631533,66832319868037929.308565707342516336069217939355436379986597275042456668754381421,7635429113363.1910587410945875134264681133051802476229799308395745210285395130515,2.13209729288171648911538254788816264611711816997202914833465191271522194436474e-73,6.8312397264774892515344644075561607708406845102364843906220797307354850871733828e-80,321669184009.87078857171630539165996097924013125972279107720004174228289344912264,1.1350509584953944903610418670191172343505594344603319908491821421074244137684032e-73,7.6073348673326927287513659458170511624063493935762918201186263719464106626110643e-74,1.4663159424535896590815549859092801905401536781055861753551086829616569930253886e-73
-10,3938528609518.7712555917696565951034056527267139102832516822268186956747737576911,0.000058558159805452520801690538596893449580228133075760358406667591983504662381096477,3938528609518.7711970336098511425826039621881170168336714540937429353163670900991,67258408095536557.252987059476580157149694590119081766039902282922197684272447224,7877057219037.5425111835393131902068113054534278205665033644536373913495475153821,2.1224247841000107111349498338018261985974682495638605131834253648286331215451981e-73,6.8002490082803580900376910699204289671694756547728961105989305736444884640909318e-80,332239554710.56584708611893208177849723581938859837987045223760822010021154999803,9.0772878520726280547674141165425012304594098205510033201431173239807969063583329e-74,6.295913513521152769256251170764650250789583701883037327923007952684723730063036e-74,1.2429609698148453037882659087387831686126280440772289080223380036022688189440059e-73
